1 167 3 71 1 202 0 163 1 19 3 26 2 35 0 192 0 136 2 229 2 145 0 227 0 85 2 166 3 11 1 14 0 98 2 92 3 91 1 64 0 116 2 2 3 107 1 125 0 137 1 151 3 71 1 199 0 162 1 23 3 27 2 32 0 191 0 139 2 231 2 143 0 227 0 85 2 168 3 9 1 13 0 98 2 95 3 91 1 64 0 116 2 6 3 108 1 124 0 136 1 154 3 73 1 197 0 161 1 28 3 29 2 30 0 191 0 143 2 233 2 141 0 226 0 85 2 171 3 7 1 12 0 97 2 97 3 89 1 62 0 115 2 8 3 108 1 123 0 136 1 159 3 74 1 195 0 161 1 34 3 32 2 28 0 190 0 149 2 236 2 137 0 225 0 85 2 173 3 3 1 10 0 97 2 100 3 88 1 60 0 114 2 12 3 110 1 121 0 135 1 165 3 77 1 193 0 160 1 39 3 33 2 24 0 189 0 153 2 238 2 134 0 224 0 86 2 175 3 0 1 9 0 97 2 102 3 87 1 59 0 114 2 16 3 110 1 119 0 135 1 167 3 77 1 192 0 159 1 42 3 34 2 23 0 188 0 156 2 239 2 134 0 224 0 87 2 179 3 1 1 9 0 97 2 106 3 86 1 59 0 114 2 19 3 111 1 118 0 135 1 172 3 79 1 191 0 159 1 47 3 36 2 23 0 189 0 160 2 241 2 132 0 223 0 88 2 181 2 255 1 9 0 96 2 109 3 86 1 58 0 114 2 23 3 112 1 117 0 134 1 176 3 80 1 189 0 159 1 53 3 38 2 20 0 188 0 165 2 243 2 127 0 222 0 89 2 183 2 250 1 7 0 96 2 111 3 83 1 56 0 113 2 26 3 112 1 115 0 133 1 180 3 82 1 185 0 158 1 57 3 40 2 15 0 186 0 168 2 245 2 122 0 220 0 89 2 184 2 246 1 5 0 95 2 113 3 81 1 54 0 112 2 28 3 112 1 113 0 133 1 182 3 83 1 184 0 157 1 59 3 40 2 12 0 185 0 169 2 245 2 120 0 219 0 89 2 186 2 244 1 4 0 95 2 115 3 80 1 53 0 112 2 30 3 112 1 112 0 132 1 185 3 84 1 183 0 157 1 62 3 41 2 13 0 185 0 174 2 247 2 119 0 219 0 91 2 189 2 244 1 4 0 95 2 118 3 79 1 52 0 112 2 35 3 113 1 110 0 132 1 193 3 86 1 180 0 156 1 76 3 46 2 9 0 184 0 191 2 254 2 113 0 217 0 97 2 197 2 238 1 2 0 94 2 129 3 77 1 49 0 111 2 46 3 115 1 107 0 131 1 202 3 90 1 176 0 154 1 84 3 49 2 5 0 182 0 196 3 0 2 109 0 216 0 97 2 198 2 233 1 0 0 93 2 128 3 75 1 48 0 110 2 46 3 114 1 106 0 130 1 201 3 89 1 176 0 154 1 80 3 47 2 5 0 182 0 193 2 255 2 109 0 216 0 95 2 196 2 234 1 0 0 93 2 126 3 75 1 48 0 110 2 43 3 114 1 107 0 130 1 198 3 88 1 176 0 154 1 78 3 47 2 5 0 182 0 189 2 253 2 108 0 216 0 94 2 194 2 232 1 0 0 93 2 125 3 72 1 47 0 110 2 41 3 112 1 104 0 130 1 198 3 89 1 174 0 153 1 78 3 47 2 1 0 181 0 192 2 254 2 105 0 215 0 95 2 196 2 229 0 254 0 93 2 126 3 70 1 46 0 110 2 44 3 112 1 102 0 129 1 200 3 89 1 171 0 153 1 80 3 48 1 255 0 181 0 192 2 255 2 102 0 214 0 96 2 196 2 226 0 254 0 92 2 127 3 70 1 46 0 109 2 44 3 112 1 102 0 129 1 200 3 89 1 171 0 153 1 80 3 48 1 255 0 181 0 194 2 255 2 103 0 214 0 95 2 197 2 227 0 254 0 93 2 127 3 70 1 46 0 109 2 44 3 112 1 103 0 129 1 201 3 89 1 171 0 152 1 83 3 49 1 255 0 181 0 196 3 0 2 102 0 214 0 97 2 198 2 225 0 253 0 92 2 130 3 68 1 44 0 109 2 46 3 111 1 101 0 129 1 203 3 90 1 169 0 152 1 86 3 49 1 252 0 180 0 199 3 1 2 98 0 213 0 98 2 199 2 221 0 251 0 92 2 131 3 66 1 43 0 109 2 48 3 111 1 99 0 128 1 208 3 92 1 167 0 151 1 89 3 51 1 248 0 179 0 202 3 2 2 95 0 212 0 99 2 201 2 219 0 251 0 92 2 131 3 64 1 42 0 108 2 50 3 111 1 98 0 128 1 209 3 93 1 167 0 151 1 92 3 51 1 249 0 179 0 205 3 3 2 96 0 212 0 100 2 202 2 219 0 251 0 92 2 133 3 64 1 42 0 108 2 52 3 111 1 98 0 127 1 211 3 93 1 166 0 151 1 95 3 53 1 248 0 178 0 209 3 4 2 93 0 211 0 102 2 203 2 215 0 250 0 91 2 136 3 63 1 41 0 108 2 54 3 111 1 97 0 127 1 213 3 94 1 164 0 150 1 98 3 54 1 245 0 177 0 213 3 6 2 90 0 210 0 102 2 205 2 212 0 249 0 91 2 137 3 59 1 39 0 107 2 56 3 110 1 95 0 126 1 214 3 94 1 162 0 149 1 99 3 54 1 244 0 177 0 216 3 7 2 89 0 210 0 104 2 206 2 211 0 248 0 91 2 139 3 59 1 39 0 107 2 57 3 111 1 94 0 126 1 217 3 95 1 162 0 149 1 102 3 55 1 243 0 177 0 217 3 7 2 87 0 209 0 104 2 207 2 209 0 248 0 90 2 140 3 59 1 38 0 107 2 60 3 111 1 94 0 126 1 218 3 96 1 161 0 149 1 105 3 56 1 242 0 176 0 220 3 9 2 85 0 209 0 107 2 208 2 207 0 247 0 90 2 141 3 56 1 37 0 106 2 61 3 109 1 92 0 125 1 223 3 97 1 159 0 148 1 107 3 57 1 239 0 175 0 226 3 10 2 82 0 208 0 109 2 210 2 205 0 246 0 90 2 143 3 55 1 36 0 106 2 63 3 109 1 90 0 125 1 224 3 98 1 157 0 148 1 110 3 58 1 237 0 175 0 228 3 11 2 81 0 207 0 111 2 212 2 202 0 245 0 90 2 145 3 53 1 35 0 106 2 64 3 109 1 90 0 125 1 227 3 99 1 157 0 147 1 113 3 59 1 237 0 174 0 232 3 12 2 80 0 207 0 111 2 212 2 202 0 245 0 89 2 146 3 52 1 35 0 105 2 67 3 109 1 89 0 124 1 229 3 99 1 155 0 147 1 116 3 60 1 235 0 174 0 235 3 13 2 77 0 206 0 114 2 215 2 198 0 244 0 89 2 149 3 49 1 33 0 105 2 69 3 108 1 87 0 124 1 232 3 101 1 153 0 146 1 119 3 61 1 232 0 173 0 239 3 15 2 73 0 205 0 115 2 216 2 194 0 243 0 89 2 149 3 47 1 32 0 105 2 72 3 108 1 86 0 123 1 233 3 101 1 152 0 146 1 123 3 63 1 230 0 172 0 242 3 16 2 71 0 204 0 116 2 217 2 192 0 242 0 89 2 152 3 47 1 31 0 104 2 72 3 107 1 85 0 123 1 235 3 102 1 151 0 146 1 124 3 63 1 230 0 172 0 245 3 17 2 72 0 204 0 117 2 218 2 192 0 242 0 88 2 152 3 47 1 32 0 104 2 75 3 108 1 85 0 123 1 237 3 102 1 150 0 145 1 125 3 63 1 229 0 172 0 248 3 18 2 70 0 204 0 120 2 219 2 190 0 241 0 88 2 154 3 45 1 30 0 104 2 76 3 107 1 84 0 123 1 239 3 103 1 148 0 145 1 127 3 64 1 227 0 171 0 249 3 18 2 68 0 203 0 121 2 220 2 188 0 240 0 88 2 155 3 43 1 30 0 104 2 77 3 106 1 83 0 122 1 241 3 103 1 148 0 145 1 129 3 65 1 226 0 171 0 250 3 19 2 66 0 202 0 121 2 220 2 186 0 240 0 88 2 155 3 42 1 29 0 104 2 78 3 106 1 82 0 122 1 240 3 103 1 147 0 144 1 130 3 65 1 226 0 171 0 254 3 20 2 66 0 203 0 122 2 221 2 186 0 240 0 88 2 156 3 42 1 29 0 104 2 79 3 107 1 83 0 122 1 243 3 104 1 148 0 145 1 133 3 66 1 226 0 171 1 0 3 20 2 65 0 202 0 124 2 222 2 185 0 240 0 88 2 156 3 40 1 28 0 103 2 80 3 106 1 82 0 122 1 243 3 104 1 147 0 144 1 134 3 66 1 225 0 171 1 0 3 21 2 64 0 202 0 125 2 223 2 183 0 239 0 87 2 159 3 41 1 28 0 103 2 82 3 106 1 82 0 122 1 245 3 105 1 146 0 144 1 134 3 67 1 223 0 170 1 1 3 21 2 62 0 201 0 125 2 223 2 181 0 239 0 87 2 159 3 38 1 27 0 103 2 81 3 104 1 80 0 121 1 245 3 105 1 144 0 143 1 136 3 67 1 223 0 170 1 1 3 21 2 62 0 201 0 126 2 223 2 181 0 238 0 87 2 160 3 39 1 27 0 103 2 82 3 105 1 80 0 121 1 247 3 106 1 145 0 144 1 137 3 67 1 223 0 170 1 3 3 22 2 62 0 201 0 127 2 224 2 180 0 238 0 87 2 160 3 38 1 27 0 103 2 82 3 105 1 80 0 121 1 247 3 106 1 144 0 143 1 139 3 68 1 222 0 170 1 7 3 23 2 61 0 201 0 129 2 225 2 179 0 238 0 87 2 161 3 37 1 26 0 102 2 85 3 104 1 79 0 121 1 248 3 106 1 141 0 143 1 139 3 68 1 219 0 169 1 8 3 23 2 58 0 199 0 129 2 226 2 175 0 237 0 87 2 161 3 33 1 24 0 102 2 85 3 103 1 78 0 120 1 249 3 107 1 141 0 142 1 140 3 68 1 219 0 168 1 8 3 23 2 57 0 200 0 128 2 225 2 173 0 236 0 86 2 161 3 34 1 25 0 102 2 85 3 104 1 78 0 121 1 250 3 107 1 143 0 143 1 142 3 69 1 220 0 169 1 11 3 24 2 59 0 200 0 131 2 227 2 176 0 237 0 87 2 163 3 37 1 26 0 102 2 86 3 104 1 78 0 121 1 252 3 107 1 142 0 143 1 142 3 69 1 219 0 169 1 11 3 24 2 57 0 200 0 131 2 227 2 175 0 237 0 87 2 164 3 35 1 25 0 102 2 87 3 103 1 77 0 120 1 252 3 108 1 141 0 142 1 145 3 70 1 217 0 168 1 13 3 25 2 55 0 199 0 132 2 227 2 171 0 236 0 87 2 164 3 32 1 24 0 102 2 88 3 102 1 76 0 120 1 253 3 108 1 140 0 142 1 145 3 70 1 217 0 168 1 15 3 26 2 55 0 199 0 133 2 228 2 171 0 236 0 86 2 164 3 33 1 24 0 102 2 88 3 103 1 77 0 120 1 254 3 108 1 141 0 142 1 146 3 71 1 217 0 168 1 16 3 26 2 56 0 199 0 133 2 228 2 173 0 236 0 87 2 164 3 34 1 24 0 102 2 89 3 103 1 77 0 120 1 254 3 108 1 141 0 142 1 145 3 70 1 217 0 168 1 15 3 25 2 55 0 199 0 134 2 228 2 172 0 236 0 87 2 166 3 32 1 23 0 102 2 89 3 102 1 75 0 120 1 254 3 108 1 139 0 141 1 148 3 71 1 216 0 168 1 18 3 27 2 53 0 198 0 137 2 230 2 168 0 234 0 87 2 167 3 30 1 22 0 101 2 91 3 101 1 75 0 119 2 0 3 109 1 138 0 141 1 149 3 72 1 213 0 167 1 17 3 26 2 51 0 197 0 134 2 229 2 167 0 234 0 86 2 166 3 29 1 22 0 101 2 89 3 101 1 75 0 120 2 0 3 109 1 139 0 141 1 147 3 71 1 215 0 167 1 19 3 27 2 55 0 199 0 137 2 230 2 171 0 235 0 87 2 166 3 32 1 23 0 102 2 91 3 103 1 77 0 120 2 0 3 109 1 139 0 142 1 147 3 71 1 216 0 167 1 18 3 27 2 54 0 198 0 137 2 230 2 168 0 234 0 87 2 167 3 30 1 22 0 101 2 92 3 102 1 75 0 119 2 0 3 108 1 137 0 141 1 150 3 72 1 214 0 167 1 20 3 27 2 50 0 197 0 138 2 230 2 166 0 234 0 87 2 168 3 28 1 21 0 101 2 92 3 100 1 73 0 119 2 1 3 109 1 136 0 141 1 152 3 73 1 213 0 167 1 22 3 28 2 50 0 197 0 138 2 231 2 166 0 234 0 86 2 167 3 27 1 21 0 101 2 93 3 101 1 74 0 119 2 2 3 109 1 137 0 141 1 150 3 72 1 213 0 167 1 21 3 28 2 51 0 198 0 139 2 231 2 167 0 235 0 87 2 168 3 29 1 22 0 101 2 93 3 102 1 74 0 119 2 3 3 110 1 138 0 141 1 151 3 73 1 213 0 167 1 24 3 29 2 52 0 198 0 139 2 231 2 168 0 234 0 87 2 169 3 29 1 22 0 101 2 95 3 102 1 75 0 119 2 4 3 110 1 137 0 141 1 154 3 73 1 213 0 167 1 25 3 29 2 49 0 197 0 141 2 232 2 163 0 233 0 86 2 169 3 26 1 21 0 100 2 92 3 99 1 72 0 119 2 4 3 110 1 135 0 140 1 152 3 73 1 210 0 166 1 22 3 28 2 47 0 196 0 139 2 231 2 163 0 233 0 87 2 169 3 27 1 21 0 101 2 92 3 100 1 73 0 119 2 2 3 109 1 136 0 141 1 152 3 73 1 213 0 167 1 22 3 28 2 50 0 197 0 139 2 231 2 167 0 235 0 87 2 169 3 28 1 22 0 101 2 93 3 101 1 74 0 119 2 4 3 110 1 138 0 141 1 152 3 73 1 213 0 167 1 22 3 28 2 50 0 197 0 138 2 231 2 166 0 234 0 87 2 169 3 28 1 22 0 101 2 93 3 101 1 74 0 119 2 3 3 110 1 137 0 141 1 152 3 73 1 213 0 166 1 22 3 28 2 49 0 197 0 139 2 231 2 164 0 233 0 86 2 169 3 27 1 21 0 101 2 93 3 100 1 73 0 119 2 3 3 110 1 136 0 141 1 151 3 72 1 212 0 166 1 21 3 28 2 49 0 197 0 139 2 231 2 166 0 234 0 86 2 167 3 28 1 22 0 101 2 92 3 102 1 74 0 119 2 1 3 109 1 137 0 141 1 150 3 72 1 214 0 167 1 20 3 27 2 51 0 198 0 136 2 229 2 166 0 234 0 86 2 167 3 29 1 22 0 101 2 91 3 101 1 74 0 119 2 1 3 109 1 138 0 141 1 149 3 72 1 215 0 167 1 20 3 28 2 52 0 198 0 137 2 230 2 168 0 235 0 87 2 167 3 30 1 22 0 101 2 92 3 102 1 75 0 119 2 2 3 109 1 137 0 141 1 150 3 72 1 213 0 166 1 21 3 28 2 51 0 197 0 137 2 230 2 166 0 234 0 87 2 168 3 28 1 22 0 101 2 91 3 101 1 74 0 119 2 1 3 109 1 137 0 141 1 149 3 72 1 214 0 167 1 18 3 27 2 51 0 198 0 136 2 229 2 167 0 235 0 87 2 166 3 30 1 22 0 101 2 90 3 101 1 75 0 119 1 255 3 108 1 138 0 141 1 149 3 72 1 215 0 167 1 17 3 26 2 53 0 198 0 134 2 228 2 169 0 235 0 87 2 166 3 32 1 24 0 102 2 90 3 103 1 76 0 120 1 255 3 109 1 140 0 142 1 146 3 71 1 217 0 168 1 16 3 26 2 56 0 199 0 135 2 229 2 172 0 236 0 87 2 165 3 32 1 23 0 102 2 88 3 101 1 75 0 120 1 253 3 108 1 140 0 142 1 145 3 70 1 217 0 168 1 16 3 26 2 56 0 199 0 133 2 228 2 173 0 236 0 87 2 165 3 32 1 23 0 102 2 88 3 103 1 77 0 120 1 253 3 108 1 141 0 142 1 144 3 70 1 217 0 168 1 12 3 25 2 56 0 199 0 133 2 228 2 174 0 236 0 87 2 164 3 34 1 24 0 102 2 88 3 103 1 78 0 120 1 252 3 108 1 141 0 142 1 143 3 70 1 219 0 169 1 13 3 25 2 58 0 200 0 132 2 227 2 175 0 237 0 87 2 163 3 35 1 25 0 102 2 85 3 104 1 78 0 120 1 252 3 108 1 142 0 143 1 142 3 70 1 219 0 169 1 12 3 25 2 59 0 200 0 131 2 226 2 175 0 237 0 87 2 163 3 34 1 24 0 102 2 85 3 103 1 77 0 120 1 249 3 107 1 142 0 143 1 140 3 69 1 220 0 169 1 9 3 24 2 59 0 200 0 129 2 225 2 177 0 237 0 87 2 162 3 37 1 26 0 102 2 85 3 105 1 80 0 121 1 248 3 107 1 144 0 143 1 141 3 69 1 222 0 169 1 8 3 23 2 60 0 200 0 129 2 226 2 179 0 238 0 87 2 160 3 38 1 26 0 103 2 83 3 105 1 80 0 121 1 246 3 106 1 144 0 143 1 139 3 68 1 223 0 170 1 7 3 23 2 63 0 201 0 128 2 225 2 181 0 239 0 87 2 161 3 40 1 28 0 103 2 85 3 106 1 81 0 122 1 248 3 106 1 145 0 143 1 139 3 68 1 223 0 170 1 7 3 23 2 62 0 201 0 126 2 224 2 179 0 238 0 87 2 160 3 38 1 27 0 103 2 83 3 105 1 80 0 122 1 247 3 106 1 145 0 144 1 137 3 67 1 224 0 170 1 4 3 22 2 64 0 202 0 126 2 224 2 183 0 239 0 87 2 159 3 41 1 28 0 103 2 82 3 106 1 81 0 122 1 246 3 106 1 146 0 144 1 136 3 67 1 224 0 171 1 6 3 23 2 64 0 202 0 128 2 225 2 183 0 239 0 88 2 159 3 40 1 28 0 103 2 82 3 105 1 81 0 122 1 245 3 105 1 146 0 144 1 134 3 66 1 224 0 170 1 1 3 21 2 64 0 202 0 125 2 223 2 184 0 239 0 87 2 158 3 42 1 29 0 104 2 81 3 107 1 82 0 122 1 244 3 105 1 147 0 144 1 135 3 67 1 226 0 171 1 1 3 21 2 66 0 203 0 125 2 223 2 187 0 240 0 88 2 158 3 43 1 29 0 103 2 80 3 107 1 83 0 122 1 244 3 105 1 147 0 144 1 132 3 66 1 225 0 171 1 3 3 22 2 68 0 203 0 125 2 223 2 188 0 241 0 88 2 159 3 45 1 30 0 104 2 80 3 108 1 84 0 123 1 244 3 105 1 149 0 145 1 134 3 66 1 227 0 172 1 1 3 21 2 69 0 203 0 125 2 223 2 189 0 241 0 88 2 158 3 44 1 30 0 104 2 81 3 108 1 84 0 123 1 244 3 105 1 149 0 145 1 133 3 66 1 227 0 172 0 255 3 20 2 68 0 203 0 124 2 222 2 189 0 241 0 88 2 156 3 44 1 30 0 104 2 80 3 108 1 85 0 123 1 243 3 105 1 150 0 145 1 132 3 66 1 229 0 172 0 255 3 20 2 71 0 204 0 123 2 221 2 192 0 242 0 88 2 156 3 47 1 31 0 104 2 78 3 109 1 86 0 123 1 241 3 104 1 151 0 146 1 129 3 65 1 230 0 172 0 252 3 19 2 71 0 204 0 122 2 221 2 191 0 242 0 88 2 155 3 46 1 31 0 104 2 78 3 109 1 86 0 123 1 241 3 104 1 151 0 146 1 129 3 65 1 230 0 172 0 251 3 19 2 71 0 204 0 121 2 220 2 191 0 242 0 88 2 154 3 47 1 31 0 104 2 76 3 108 1 85 0 123 1 239 3 103 1 151 0 145 1 127 3 64 1 230 0 173 0 248 3 18 2 72 0 204 0 120 2 219 2 193 0 242 0 88 2 154 3 49 1 32 0 105 2 76 3 109 1 87 0 124 1 237 3 103 1 153 0 146 1 126 3 64 1 232 0 173 0 247 3 17 2 74 0 205 0 119 2 218 2 196 0 243 0 89 2 153 3 50 1 33 0 105 2 74 3 110 1 88 0 124 1 236 3 102 1 154 0 147 1 126 3 64 1 234 0 174 0 246 3 17 2 75 0 206 0 119 2 219 2 197 0 243 0 89 2 153 3 50 1 33 0 105 2 75 3 110 1 88 0 124 1 237 3 103 1 154 0 147 1 125 3 64 1 233 0 174 0 245 3 17 2 76 0 205 0 117 2 217 2 197 0 244 0 89 2 151 3 50 1 33 0 105 2 73 3 110 1 88 0 124 1 234 3 101 1 154 0 147 1 122 3 63 1 234 0 174 0 241 3 16 2 77 0 206 0 116 2 216 2 200 0 245 0 89 2 149 3 52 1 34 0 105 2 70 3 110 1 90 0 125 1 233 3 101 1 156 0 147 1 119 3 61 1 236 0 174 0 239 3 15 2 80 0 207 0 113 2 214 2 203 0 246 0 89 2 149 3 55 1 36 0 106 2 69 3 110 1 90 0 125 1 231 3 100 1 157 0 148 1 117 3 61 1 237 0 175 0 236 3 14 2 80 0 207 0 113 2 214 2 202 0 245 0 90 2 148 3 54 1 35 0 106 2 68 3 110 1 91 0 125 1 230 3 100 1 157 0 148 1 115 3 60 1 237 0 175 0 234 3 13 2 79 0 207 0 111 2 213 2 201 0 245 0 90 2 145 3 53 1 35 0 106 2 67 3 109 1 90 0 125 1 228 3 99 1 157 0 147 1 113 3 59 1 237 0 175 0 230 3 12 2 81 0 207 0 110 2 212 2 204 0 246 0 90 2 145 3 55 1 36 0 106 2 66 3 111 1 93 0 126 1 226 3 98 1 160 0 149 1 113 3 59 1 242 0 176 0 232 3 13 2 87 0 209 0 112 2 213 2 211 0 248 0 91 2 145 3 59 1 38 0 107 2 67 3 113 1 94 0 126 1 226 3 98 1 162 0 149 1 113 3 59 1 243 0 177 0 230 3 12 2 88 0 209 0 111 2 212 2 210 0 248 0 91 2 145 3 59 1 38 0 107 2 66 3 113 1 95 0 126 1 228 3 99 1 162 0 150 1 115 3 60 1 243 0 177 0 233 3 13 2 88 0 209 0 112 2 213 2 210 0 248 0 91 2 147 3 60 1 39 0 107 2 67 3 113 1 95 0 126 1 229 3 100 1 163 0 150 1 115 3 60 1 245 0 177 0 235 3 14 2 91 0 210 0 113 2 213 2 215 0 250 0 91 2 147 3 62 1 40 0 107 2 66 3 114 1 97 0 127 1 228 3 99 1 166 0 151 1 114 3 60 1 248 0 178 0 231 3 12 2 92 0 211 0 112 2 213 2 218 0 251 0 91 2 147 3 66 1 42 0 108 2 69 3 116 1 98 0 128 1 232 3 101 1 166 0 151 1 121 3 62 1 249 0 179 0 245 3 17 2 94 0 211 0 122 2 220 2 219 0 251 0 91 2 158 3 68 1 42 0 108 2 83 3 120 1 99 0 128 1 250 3 107 1 168 0 152 1 143 3 70 1 249 0 179 1 13 3 25 2 95 0 212 0 135 2 228 2 219 0 251 0 92 2 163 3 68 1 42 0 108 2 87 3 121 1 98 0 128 1 252 3 108 1 166 0 151 1 144 3 70 1 249 0 179 1 11 3 25 2 95 0 212 0 133 2 227 2 220 0 251 0 92 2 162 3 70 1 43 0 109 2 84 3 121 1 99 0 128 1 248 3 106 1 168 0 152 1 136 3 67 1 251 0 179 1 6 3 23 2 97 0 212 0 132 2 226 2 221 0 251 0 92 2 163 3 69 1 42 0 108 2 87 3 121 1 98 0 128 1 253 3 108 1 166 0 151 1 148 3 71 1 247 0 178 1 20 3 28 2 91 0 211 0 140 2 231 2 213 0 249 0 92 2 168 3 64 1 39 0 107 2 93 3 121 1 95 0 126 2 3 3 110 1 162 0 150 1 153 3 73 1 244 0 177 1 17 3 27 2 90 0 210 0 136 2 229 2 215 0 249 0 91 2 165 3 65 1 40 0 107 2 89 3 120 1 96 0 127 1 254 3 108 1 164 0 150 1 144 3 70 1 246 0 178 1 15 3 26 2 92 0 211 0 134 2 228 2 217 0 250 0 91 2 163 3 68 1 41 0 108 2 87 3 122 1 98 0 128 1 251 3 108 1 166 0 151 1 141 3 69 1 249 0 179 1 7 3 24 2 94 0 212 0 133 2 227 2 218 0 250 0 92 2 163 3 67 1 41 0 108 2 86 3 121 1 97 0 127 1 246 3 106 1 164 0 150 1 132 3 66 1 245 0 178 0 244 3 17 2 88 0 209 0 115 2 215 2 210 0 248 0 91 2 146 3 58 1 37 0 106 2 64 3 112 1 93 0 126 1 221 3 97 1 160 0 149 1 104 3 56 1 240 0 176 0 220 3 8 2 85 0 209 0 105 2 207 2 209 0 247 0 90 2 138 3 57 1 37 0 107 2 57 3 110 1 94 0 126 1 217 3 95 1 162 0 149 1 100 3 55 1 244 0 177 0 213 3 6 2 89 0 210 0 103 2 205 2 213 0 249 0 91 2 137 3 63 1 40 0 108 2 55 3 112 1 96 0 127 1 214 3 95 1 165 0 151 1 97 3 54 1 247 0 178 0 210 3 5 2 93 0 211 0 102 2 204 2 218 0 250 0 91 2 135 3 64 1 42 0 108 2 53 3 112 1 98 0 127 1 212 3 94 1 167 0 151 1 93 3 53 1 250 0 179 0 207 3 4 2 96 0 212 0 101 2 203 2 221 0 252 0 92 2 133 3 66 1 43 0 108 2 52 3 113 1 99 0 128 1 209 3 93 1 168 0 151 1 92 3 52 1 251 0 179 0 205 3 4 2 98 0 213 0 100 2 202 2 224 0 253 0 92 2 133 3 69 1 44 0 109 2 51 3 113 1 101 0 128 1 207 3 92 1 169 0 152 1 89 3 51 1 253 0 180 0 200 3 2 2 102 0 214 0 98 2 199 2 227 0 254 0 93 2 130 3 71 1 46 0 109 2 47 3 113 1 103 0 129 1 205 3 91 1 172 0 153 1 85 3 50 2 1 0 181 0 198 3 1 2 105 0 215 0 97 2 199 2 231 0 255 0 93 2 130 3 73 1 47 0 110 2 46 3 114 1 105 0 130 1 201 3 90 1 175 0 154 1 83 3 49 2 5 0 182 0 195 3 0 2 110 0 216 0 97 2 198 2 232 1 0 0 93 2 128 3 75 1 48 0 111 2 45 3 114 1 107 0 131 1 202 3 90 1 177 0 154 1 82 3 49 2 6 0 183 0 193 2 255 2 109 0 216 0 95 2 196 2 234 1 0 0 93 2 126 3 74 1 48 0 110 2 43 3 114 1 107 0 130 1 197 3 89 1 178 0 155 1 77 3 47 2 7 0 183 0 189 2 254 2 113 0 217 0 95 2 195 2 238 1 2 0 94 2 125 3 77 1 51 0 111 2 41 3 114 1 109 0 131 1 196 3 88 1 179 0 155 1 76 3 47 2 9 0 184 0 187 2 253 2 116 0 218 0 94 2 193 2 241 1 3 0 95 2 123 3 80 1 52 0 112 2 39 3 115 1 111 0 132 1 194 3 87 1 182 0 156 1 72 3 45 2 12 0 185 0 185 2 252 2 119 0 219 0 93 2 192 2 244 1 4 0 95 2 121 3 79 1 52 0 112 2 37 3 114 1 112 0 132 1 191 3 86 1 182 0 156 1 70 3 45 2 14 0 186 0 182 2 251 2 120 0 220 0 92 2 191 2 246 1 5 0 95 2 120 3 81 1 54 0 112 2 35 3 114 1 112 0 132 1 189 3 86 1 183 0 157 1 68 3 44 2 15 0 186 0 179 2 250 2 124 0 221 0 92 2 190 2 248 1 6 0 96 2 119 3 83 1 55 0 113 2 33 3 114 1 114 0 133 1 188 3 86 1 185 0 157 1 65 3 43 2 16 0 186 0 177 2 249 2 125 0 221 0 92 2 190 2 250 1 7 0 96 2 117 3 84 1 56 0 113 2 31 3 114 1 115 0 133 1 184 3 84 1 188 0 158 1 63 3 42 2 18 0 187 0 174 2 248 2 128 0 222 0 91 2 188 2 252 1 7 0 96 2 116 3 86 1 57 0 113 2 30 3 114 1 117 0 134 1 185 3 84 1 189 0 159 1 60 3 41 2 21 0 188 0 172 2 247 2 130 0 223 0 91 2 187 2 253 1 8 0 96 2 115 3 86 1 58 0 113 2 29 3 114 1 118 0 134 1 183 3 83 1 191 0 159 1 60 3 41 2 22 0 188 0 169 2 246 2 131 0 223 0 90 2 185 2 254 1 8 0 96 2 114 3 87 1 59 0 114 2 27 3 114 1 119 0 135 1 183 3 84 1 192 0 159 1 58 3 40 2 24 0 189 0 168 2 245 2 134 0 224 0 90 2 185 3 0 1 9 0 96 2 113 3 88 1 60 0 114 2 27 3 114 1 121 0 135 1 179 3 82 1 193 0 160 1 56 3 40 2 26 0 189 0 166 2 245 2 136 0 224 0 90 2 185 3 4 1 11 0 97 2 112 3 90 1 61 0 115 2 26 3 114 1 122 0 136 1 178 3 82 1 195 0 161 1 52 3 38 2 28 0 190 0 164 2 243 2 139 0 226 0 89 2 183 3 6 1 12 0 97 2 111 3 91 1 62 0 115 2 24 3 114 1 122 0 136 1 176 3 81 1 194 0 160 1 51 3 38 2 28 0 190 0 162 2 243 2 138 0 225 0 89 2 182 3 5 1 11 0 97 2 109 3 90 1 62 0 115 2 23 3 113 1 122 0 136 1 174 3 80 1 195 0 161 1 48 3 37 2 30 0 191 0 160 2 242 2 140 0 226 0 88 2 181 3 7 1 12 0 98 2 108 3 93 1 64 0 116 2 21 3 113 1 125 0 137 1 174 3 80 1 199 0 162 1 48 3 37 2 33 0 191 0 159 2 241 2 145 0 227 0 88 2 179 3 12 1 14 0 98 2 107 3 95 1 65 0 116 2 19 3 113 1 127 0 137 1 172 3 80 1 201 0 163 1 45 3 36 2 36 0 193 0 155 2 240 2 147 0 228 0 88 2 179 3 14 1 15 0 99 2 105 3 95 1 66 0 116 2 18 3 113 1 127 0 138 1 168 3 79 1 202 0 163 1 43 3 35 2 36 0 193 0 155 2 239 2 149 0 229 0 87 2 177 3 15 1 16 0 99 2 104 3 96 1 67 0 117 2 15 3 113 1 129 0 138 1 165 3 77 1 204 0 164 1 38 3 34 2 39 0 193 0 150 2 237 2 153 0 230 0 87 2 175 3 19 1 17 0 99 2 100 3 98 1 69 0 118 2 12 3 112 1 131 0 139 1 162 3 76 1 207 0 164 1 34 3 32 2 44 0 195 0 147 2 236 2 159 0 232 0 87 2 173 3 24 1 19 0 100 2 98 3 100 1 72 0 119 2 9 3 111 1 133 0 140 1 158 3 75 1 209 0 165 1 31 3 31 2 47 0 196 0 144 2 234 2 161 0 232 0 87 2 171 3 24 1 20 0 100 2 95 3 99 1 72 0 118 2 5 3 110 1 134 0 140 1 155 3 74 1 210 0 166 1 24 3 29 2 47 0 196 0 140 2 232 2 162 0 233 0 86 2 169 3 27 1 21 0 101 2 93 3 101 1 73 0 119 2 2 3 109 1 136 0 141 1 150 3 72 1 212 0 166 1 21 3 28 2 52 0 198 0 138 2 230 2 168 0 234 0 86 2 166 3 31 1 23 0 101 2 90 3 103 1 76 0 120 2 0 3 109 1 140 0 142 1 147 3 71 1 217 0 168 1 17 3 26 2 57 0 199 0 135 2 229 2 176 0 237 0 87 2 166 3 36 1 25 0 102 2 88 3 105 1 78 0 121 1 253 3 108 1 142 0 143 1 146 3 71 1 221 0 169 1 12 3 25 2 59 0 200 0 133 2 228 2 176 0 237 0 87 2 163 3 36 1 25 0 102 2 87 3 105 1 79 0 121 1 251 3 107 1 143 0 143 1 141 3 69 1 220 0 169 1 9 3 24 2 60 0 200 0 129 2 225 2 178 0 238 0 87 2 160 3 38 1 26 0 103 2 83 3 106 1 80 0 121 1 246 3 106 1 144 0 144 1 136 3 67 1 225 0 171 1 4 3 22 2 65 0 202 0 127 2 224 2 186 0 240 0 88 2 158 3 43 1 29 0 104 2 81 3 108 1 84 0 123 1 244 3 105 1 149 0 145 1 135 3 67 1 228 0 172 1 2 3 21 2 69 0 203 0 124 2 222 2 189 0 241 0 88 2 158 3 46 1 31 0 104 2 79 3 109 1 85 0 123 1 242 3 104 1 150 0 145 1 131 3 66 1 229 0 172 0 253 3 20 2 71 0 204 0 122 2 221 2 190 0 241 0 88 2 156 3 46 1 31 0 104 2 78 3 108 1 85 0 123 1 240 3 104 1 150 0 145 1 128 3 65 1 230 0 172 0 250 3 19 2 71 0 204 0 120 2 220 2 194 0 242 0 89 2 154 3 48 1 32 0 105 2 74 3 109 1 86 0 123 1 237 3 103 1 152 0 146 1 124 3 63 1 232 0 173 0 245 3 17 2 76 0 206 0 117 2 217 2 198 0 244 0 89 2 151 3 52 1 34 0 105 2 72 3 111 1 90 0 125 1 234 3 101 1 157 0 147 1 123 3 63 1 237 0 175 0 240 3 16 2 80 0 207 0 116 2 216 2 205 0 246 0 90 2 150 3 56 1 36 0 106 2 72 3 112 1 91 0 125 1 230 3 100 1 157 0 148 1 118 3 61 1 239 0 175 0 237 3 14 2 82 0 208 0 113 2 214 2 205 0 246 0 90 2 149 3 57 1 37 0 106 2 69 3 112 1 91 0 125 1 231 3 101 1 158 0 148 1 117 3 61 1 240 0 175 0 235 3 14 2 83 0 208 0 112 2 214 2 205 0 246 0 90 2 147 3 56 1 36 0 106 2 67 3 111 1 91 0 125 1 227 3 99 1 159 0 149 1 112 3 59 1 242 0 176 0 231 3 12 2 86 0 209 0 110 2 212 2 208 0 247 0 90 2 145 3 60 1 39 0 107 2 65 3 113 1 95 0 127 1 226 3 99 1 162 0 150 1 110 3 58 1 244 0 177 0 229 3 12 2 90 0 210 0 110 2 211 2 213 0 249 0 91 2 143 3 61 1 40 0 107 2 63 3 113 1 96 0 127 1 224 3 98 1 164 0 150 1 108 3 58 1 246 0 178 0 225 3 10 2 91 0 211 0 108 2 209 2 213 0 249 0 91 2 142 3 62 1 40 0 108 2 62 3 113 1 97 0 127 1 222 3 97 1 164 0 150 1 107 3 57 1 246 0 177 0 223 3 9 2 93 0 211 0 108 2 209 2 216 0 250 0 91 2 141 3 64 1 41 0 108 2 60 3 113 1 97 0 127 1 220 3 97 1 165 0 150 1 103 3 56 1 248 0 178 0 219 3 8 2 94 0 211 0 105 2 207 2 218 0 251 0 91 2 139 3 66 1 43 0 108 2 57 3 113 1 99 0 128 1 217 3 96 1 167 0 151 1 99 3 54 1 253 0 180 0 215 3 7 2 99 0 213 0 104 2 205 2 223 0 252 0 92 2 137 3 69 1 44 0 109 2 56 3 115 1 102 0 129 1 213 3 94 1 168 0 152 1 98 3 54 1 253 0 180 0 212 3 6 2 101 0 214 0 102 2 204 2 225 0 253 0 92 2 136 3 70 1 45 0 109 2 55 3 114 1 102 0 129 1 213 3 94 1 171 0 153 1 95 3 53 1 255 0 181 0 207 3 4 2 101 0 213 0 101 2 203 2 225 0 253 0 92 2 134 3 70 1 45 0 109 2 51 3 114 1 102 0 129 1 208 3 92 1 172 0 153 1 92 3 52 2 1 0 181 0 204 3 3 2 105 0 215 0 99 2 201 2 230 0 255 0 93 2 132 3 72 1 47 0 110 2 49 3 115 1 106 0 130 1 207 3 92 1 176 0 154 1 85 3 50 2 5 0 183 0 200 3 2 2 112 0 217 0 98 2 199 2 235 1 1 0 94 2 129 3 76 1 50 0 111 2 46 3 115 1 108 0 131 1 201 3 90 1 177 0 155 1 81 3 48 2 7 0 183 0 194 3 0 2 112 0 217 0 96 2 197 2 238 1 2 0 94 2 127 3 78 1 51 0 111 2 43 3 115 1 110 0 132 1 198 3 89 1 180 0 155 1 78 3 47 2 9 0 184 0 190 2 254 2 116 0 219 0 95 2 195 2 240 1 3 0 94 2 124 3 79 1 52 0 112 2 40 3 115 1 111 0 132 1 197 3 89 1 182 0 156 1 76 3 47 2 11 0 185 0 185 2 252 2 119 0 219 0 94 2 193 2 245 1 5 0 95 2 122 3 82 1 54 0 112 2 37 3 115 1 113 0 133 1 192 3 87 1 184 0 157 1 72 3 45 2 17 0 186 0 180 2 250 2 123 0 221 0 93 2 191 2 248 1 6 0 96 2 120 3 84 1 56 0 113 2 35 3 115 1 115 0 133 1 188 3 85 1 187 0 158 1 67 3 43 2 19 0 187 0 177 2 249 2 128 0 222 0 92 2 190 2 251 1 7 0 96 2 118 3 86 1 57 0 113 2 33 3 115 1 117 0 134 1 186 3 85 1 189 0 159 1 65 3 43 2 21 0 188 0 174 2 248 2 131 0 223 0 91 2 187 2 254 1 8 0 96 2 116 3 87 1 58 0 114 2 30 3 115 1 118 0 134 1 183 3 84 1 191 0 159 1 60 3 41 2 24 0 189 0 169 2 246 2 133 0 224 0 90 2 185 3 1 1 9 0 97 2 114 3 88 1 60 0 114 2 26 3 114 1 120 0 135 1 179 3 82 1 193 0 160 1 54 3 39 2 27 0 190 0 166 2 244 2 137 0 225 0 89 2 183 3 5 1 11 0 97 2 110 3 91 1 62 0 115 2 23 3 114 1 123 0 136 1 176 3 81 1 197 0 161 1 51 3 38 2 32 0 191 0 163 2 243 2 142 0 226 0 89 2 181 3 9 1 13 0 98 2 108 3 93 1 64 0 116 2 21 3 114 1 126 0 137 1 172 3 80 1 200 0 162 1 46 3 36 2 35 0 192 0 158 2 241 2 147 0 228 0 89 2 180 3 13 1 15 0 98 2 107 3 95 1 66 0 117 2 20 3 114 1 128 0 138 1 170 3 79 1 203 0 163 1 43 3 36 2 37 0 193 0 154 2 239 2 150 0 229 0 88 2 177 3 16 1 16 0 99 2 104 3 96 1 67 0 117 2 14 3 112 1 129 0 138 1 164 3 77 1 203 0 163 1 37 3 33 2 40 0 194 0 150 2 237 2 154 0 230 0 87 2 175 3 20 1 18 0 100 2 100 3 98 1 69 0 118 2 10 3 111 1 133 0 139 1 161 3 76 1 208 0 165 1 34 3 32 2 45 0 196 0 147 2 235 2 162 0 233 0 87 2 173 3 26 1 20 0 100 2 97 3 101 1 72 0 119 2 7 3 111 1 136 0 141 1 156 3 74 1 210 0 166 1 27 3 30 2 48 0 197 0 143 2 233 2 164 0 234 0 87 2 171 3 29 1 22 0 101 2 95 3 101 1 73 0 119 2 6 3 111 1 137 0 141 1 155 3 74 1 213 0 166 1 24 3 29 2 50 0 197 0 141 2 233 2 166 0 234 0 87 2 169 3 29 1 22 0 101 2 94 3 102 1 74 0 119 2 1 3 109 1 137 0 141 1 151 3 73 1 215 0 167 1 21 3 28 2 53 0 198 0 138 2 230 2 169 0 235 0 87 2 166 3 31 1 23 0 101 2 91 3 104 1 77 0 120 1 255 3 109 1 141 0 142 1 146 3 71 1 218 0 168 1 16 3 26 2 57 0 200 0 133 2 228 2 176 0 237 0 87 2 164 3 36 1 25 0 102 2 89 3 105 1 79 0 121 1 252 3 108 1 143 0 143 1 143 3 70 1 221 0 169 1 11 3 25 2 61 0 201 0 131 2 226 2 181 0 239 0 87 2 162 3 39 1 27 0 103 2 85 3 105 1 80 0 121 1 248 3 107 1 144 0 143 1 138 3 68 1 222 0 170 1 5 3 22 2 61 0 201 0 129 2 225 2 182 0 239 0 87 2 160 3 39 1 27 0 103 2 84 3 106 1 81 0 122 1 245 3 106 1 144 0 143 1 136 3 67 1 223 0 170 1 2 3 21 2 64 0 202 0 125 2 223 2 183 0 239 0 87 2 157 3 41 1 28 0 103 2 80 3 107 1 82 0 122 1 242 3 104 1 148 0 145 1 133 3 66 1 227 0 172 0 253 3 20 2 69 0 203 0 123 2 221 2 191 0 242 0 88 2 156 3 47 1 31 0 104 2 78 3 109 1 86 0 124 1 240 3 104 1 152 0 146 1 129 3 65 1 230 0 172 0 251 3 19 2 73 0 205 0 120 2 219 2 195 0 243 0 89 2 154 3 49 1 32 0 105 2 76 3 110 1 88 0 124 1 239 3 103 1 153 0 146 1 127 3 64 1 233 0 173 0 246 3 17 2 74 0 205 0 121 2 220 2 197 0 243 0 89 2 152 3 50 1 33 0 105 2 73 3 109 1 88 0 124 1 235 3 102 1 153 0 146 1 122 3 63 1 234 0 174 0 241 3 16 2 78 0 207 0 117 2 217 2 200 0 245 0 89 2 151 3 52 1 35 0 105 2 70 3 110 1 90 0 125 1 231 3 100 1 157 0 148 1 119 3 61 1 238 0 175 0 236 3 14 2 83 0 208 0 113 2 214 2 207 0 247 0 90 2 148 3 57 1 37 0 106 2 69 3 113 1 93 0 126 1 228 3 100 1 161 0 149 1 115 3 60 1 242 0 176 0 232 3 13 2 87 0 209 0 112 2 213 2 210 0 248 0 91 2 147 3 60 1 39 0 107 2 66 3 113 1 94 0 126 1 226 3 98 1 162 0 149 1 112 3 59 1 244 0 177 0 227 3 11 2 89 0 210 0 110 2 211 2 212 0 249 0 91 2 144 3 61 1 39 0 107 2 63 3 112 1 95 0 127 1 223 3 98 1 163 0 150 1 109 3 58 1 246 0 178 0 225 3 10 2 92 0 211 0 108 2 209 2 216 0 250 0 91 2 143 3 64 1 42 0 108 2 61 3 114 1 99 0 128 1 220 3 96 1 167 0 151 1 105 3 56 1 250 0 179 0 221 3 9 2 98 0 213 0 107 2 209 2 222 0 252 0 92 2 141 3 69 1 44 0 109 2 60 3 115 1 101 0 128 1 220 3 97 1 170 0 152 1 104 3 56 1 254 0 180 0 220 3 9 2 99 0 213 0 107 2 208 2 224 0 253 0 92 2 141 3 70 1 45 0 109 2 59 3 115 1 102 0 129 1 219 3 96 1 171 0 153 1 103 3 56 1 254 0 181 0 218 3 8 2 103 0 214 0 106 2 207 2 227 0 254 0 93 2 140 3 72 1 46 0 110 2 59 3 116 1 104 0 129 1 220 3 96 1 173 0 153 1 104 3 56 2 2 0 181 0 222 3 9 2 107 0 216 0 108 2 209 2 233 1 0 0 93 2 142 3 76 1 48 0 110 2 63 3 119 1 107 0 131 1 224 3 98 1 178 0 155 1 113 3 59 2 8 0 184 0 232 3 13 2 115 0 218 0 114 2 213 2 240 1 2 0 94 2 147 3 82 1 52 0 112 2 67 3 122 1 109 0 131 1 229 3 100 1 180 0 155 1 116 3 61 2 9 0 184 0 235 3 14 2 116 0 219 0 116 2 215 2 240 1 3 0 94 2 155 3 84 1 52 0 111 2 98 3 132 1 111 0 132 2 20 3 116 1 180 0 156 1 176 3 81 2 6 0 183 1 63 3 42 2 112 0 217 0 177 2 249 2 238 1 2 0 101 2 188 3 87 1 50 0 111 2 114 3 135 1 108 0 131 2 26 3 118 1 178 0 155 1 176 3 81 2 6 0 183 1 51 3 38 2 113 0 218 0 167 2 244 2 239 1 2 0 100 2 184 3 87 1 50 0 111 2 114 3 135 1 108 0 131 2 29 3 119 1 179 0 156 1 184 3 84 2 8 0 184 1 60 3 41 2 114 0 218 0 174 2 248 2 239 1 2 0 101 2 188 3 86 1 49 0 111 2 119 3 136 1 107 0 131 2 35 3 121 1 176 0 155 1 191 3 87 2 5 0 183 1 71 3 45 2 108 0 216 0 184 2 252 2 236 1 1 0 104 2 192 3 84 1 48 0 110 2 123 3 136 1 105 0 130 2 38 3 122 1 174 0 154 1 193 3 87 2 3 0 182 1 72 3 46 2 107 0 216 0 184 2 252 2 234 1 0 0 103 2 192 3 85 1 48 0 110 2 120 3 136 1 105 0 130 2 35 3 122 1 175 0 154 1 189 3 86 2 2 0 182 1 67 3 44 2 107 0 216 0 179 2 250 2 234 1 0 0 101 2 190 3 84 1 48 0 110 2 118 3 136 1 105 0 130 2 32 3 121 1 175 0 154 1 185 3 84 2 3 0 182 1 61 3 42 2 107 0 216 0 173 2 247 2 233 1 0 0 100 2 187 3 85 1 48 0 110 2 114 3 134 1 104 0 130 2 29 3 119 1 173 0 153 1 181 3 83 2 1 0 182 1 56 3 40 2 105 0 215 0 169 2 245 2 232 0 255 0 99 2 185 3 82 1 47 0 110 2 111 3 133 1 104 0 130 2 25 3 118 1 174 0 154 1 174 3 81 2 2 0 182 1 50 3 38 2 107 0 216 0 162 2 242 2 233 0 255 0 97 2 181 3 83 1 47 0 110 2 108 3 134 1 105 0 130 2 19 3 116 1 175 0 154 1 171 3 80 2 4 0 183 1 44 3 36 2 108 0 216 0 158 2 240 2 235 1 0 0 97 2 178 3 85 1 48 0 111 2 104 3 133 1 106 0 130 2 16 3 115 1 176 0 155 1 166 3 78 2 5 0 183 1 38 3 34 2 110 0 217 0 154 2 238 2 235 1 0 0 96 2 175 3 85 1 49 0 111 2 101 3 133 1 107 0 131 2 12 3 113 1 176 0 155 1 162 3 77 2 5 0 183 1 33 3 32 2 111 0 217 0 149 2 235 2 238 1 1 0 96 2 173 3 86 1 49 0 111 2 97 3 132 1 107 0 131 2 8 3 112 1 178 0 155 1 155 3 74 2 5 0 183 1 26 3 30 2 111 0 217 0 144 2 233 2 239 1 2 0 95 2 169 3 87 1 50 0 111 2 94 3 131 1 108 0 131 2 4 3 111 1 179 0 155 1 151 3 73 2 8 0 184 1 22 3 28 2 114 0 218 0 141 2 231 2 242 1 3 0 95 2 167 3 89 1 51 0 112 2 91 3 132 1 110 0 132 2 0 3 109 1 180 0 156 1 147 3 71 2 10 0 184 1 16 3 27 2 117 0 219 0 137 2 228 2 244 1 3 0 95 2 165 3 91 1 52 0 112 2 88 3 131 1 111 0 132 1 253 3 108 1 181 0 156 1 143 3 70 2 12 0 185 1 10 3 25 2 119 0 219 0 133 2 226 2 246 1 4 0 95 2 162 3 92 1 53 0 112 2 85 3 131 1 112 0 133 1 249 3 107 1 184 0 157 1 138 3 68 2 13 0 185 1 5 3 23 2 122 0 220 0 131 2 225 2 250 1 6 0 95 2 160 3 93 1 54 0 112 2 82 3 131 1 113 0 133 1 246 3 106 1 185 0 157 1 134 3 67 2 15 0 186 0 255 3 21 2 122 0 221 0 128 2 223 2 250 1 6 0 95 2 157 3 95 1 55 0 113 2 79 3 130 1 115 0 133 1 241 3 104 1 186 0 158 1 129 3 65 2 16 0 186 0 250 3 19 2 124 0 221 0 125 2 221 2 253 1 7 0 96 2 155 3 95 1 56 0 113 2 75 3 129 1 116 0 134 1 238 3 103 1 188 0 158 1 126 3 64 2 21 0 188 0 246 3 18 2 130 0 223 0 122 2 218 3 2 1 8 0 96 2 153 3 98 1 58 0 114 2 73 3 130 1 118 0 135 1 234 3 102 1 190 0 159 1 121 3 63 2 22 0 189 0 241 3 16 2 132 0 224 0 120 2 217 3 0 1 8 0 96 2 150 3 98 1 58 0 114 2 70 3 129 1 119 0 135 1 231 3 100 1 191 0 159 1 118 3 61 2 22 0 188 0 235 3 14 2 131 0 223 0 117 2 214 3 4 1 9 0 96 2 147 3 98 1 59 0 114 2 67 3 128 1 119 0 135 1 228 3 100 1 192 0 160 1 112 3 59 2 23 0 189 0 230 3 12 2 134 0 224 0 114 2 212 3 6 1 10 0 97 2 145 3 101 1 61 0 115 2 64 3 128 1 122 0 136 1 224 3 98 1 196 0 161 1 108 3 58 2 30 0 191 0 224 3 10 2 141 0 226 0 113 2 211 3 14 1 13 0 98 2 142 3 104 1 64 0 116 2 61 3 128 1 124 0 136 1 222 3 97 1 199 0 162 1 105 3 57 2 32 0 191 0 221 3 9 2 143 0 227 0 110 2 208 3 14 1 13 0 98 2 140 3 103 1 64 0 116 2 60 3 128 1 124 0 137 1 218 3 96 1 199 0 162 1 102 3 56 2 34 0 192 0 217 3 8 2 143 0 227 0 109 2 207 3 13 1 13 0 98 2 139 3 104 1 64 0 116 2 57 3 127 1 125 0 137 1 214 3 95 1 199 0 162 1 98 3 54 2 33 0 192 0 210 3 6 2 145 0 228 0 107 2 205 3 18 1 15 0 99 2 136 3 106 1 66 0 117 2 54 3 126 1 128 0 138 1 213 3 94 1 204 0 163 1 95 3 53 2 38 0 193 0 206 3 4 2 151 0 230 0 105 2 203 3 25 1 18 0 99 2 134 3 109 1 69 0 118 2 51 3 126 1 129 0 138 1 209 3 93 1 205 0 164 1 92 3 52 2 41 0 194 0 203 3 3 2 155 0 231 0 104 2 201 3 24 1 17 0 100 2 132 3 109 1 69 0 118 2 49 3 125 1 130 0 139 1 206 3 92 1 205 0 164 1 88 3 51 2 41 0 194 0 201 3 2 2 155 0 231 0 103 2 200 3 25 1 18 0 100 2 130 3 108 1 69 0 117 2 47 3 125 1 131 0 139 1 203 3 91 1 205 0 164 1 83 3 49 2 42 0 195 0 196 3 1 2 157 0 231 0 101 2 198 3 27 1 18 0 100 2 127 3 110 1 70 0 118 2 44 3 124 1 134 0 140 1 200 3 90 1 210 0 166 1 81 3 48 2 47 0 196 0 194 2 255 2 163 0 233 0 101 2 196 3 31 1 20 0 100 2 126 3 112 1 73 0 119 2 42 3 123 1 136 0 141 1 198 3 89 1 213 0 167 1 78 3 47 2 50 0 197 0 189 2 254 2 163 0 233 0 100 2 195 3 34 1 21 0 101 2 125 3 112 1 73 0 119 2 40 3 123 1 136 0 141 1 196 3 88 1 212 0 166 1 75 3 46 2 49 0 197 0 186 2 253 2 165 0 234 0 99 2 194 3 34 1 22 0 101 2 122 3 112 1 74 0 119 2 39 3 123 1 136 0 141 1 193 3 87 1 213 0 167 1 72 3 45 2 48 0 197 0 182 2 251 2 166 0 234 0 97 2 192 3 36 1 22 0 101 2 121 3 113 1 75 0 120 2 37 3 122 1 139 0 142 1 190 3 86 1 217 0 168 1 70 3 45 2 56 0 199 0 181 2 251 2 173 0 236 0 97 2 191 3 40 1 24 0 102 2 120 3 116 1 78 0 121 2 36 3 121 1 143 0 143 1 190 3 86 1 218 0 169 1 67 3 44 2 57 0 200 0 179 2 250 2 174 0 237 0 97 2 190 3 41 1 25 0 102 2 120 3 117 1 78 0 121 2 34 3 121 1 142 0 143 1 187 3 85 1 219 0 169 1 64 3 43 2 57 0 200 0 174 2 248 2 173 0 236 0 96 2 189 3 41 1 25 0 102 2 118 3 116 1 78 0 121 2 31 3 120 1 142 0 143 1 184 3 84 1 220 0 169 1 61 3 42 2 60 0 201 0 173 2 247 2 178 0 238 0 95 2 187 3 45 1 27 0 103 2 116 3 117 1 80 0 122 2 29 3 119 1 144 0 143 1 183 3 84 1 223 0 170 1 59 3 41 2 63 0 202 0 171 2 246 2 183 0 239 0 95 2 186 3 50 1 29 0 104 2 115 3 120 1 83 0 122 2 28 3 119 1 147 0 144 1 181 3 83 1 226 0 171 1 56 3 40 2 66 0 202 0 169 2 246 2 185 0 240 0 95 2 184 3 50 1 29 0 104 2 111 3 119 1 82 0 122 2 25 3 118 1 148 0 144 1 178 3 82 1 225 0 171 1 54 3 39 2 65 0 202 0 164 2 243 2 184 0 240 0 94 2 183 3 49 1 29 0 104 2 110 3 119 1 83 0 122 2 23 3 117 1 148 0 145 1 175 3 81 1 227 0 172 1 49 3 38 2 68 0 203 0 163 2 242 2 188 0 241 0 94 2 182 3 53 1 31 0 104 2 108 3 119 1 83 0 123 2 20 3 116 1 149 0 145 1 172 3 80 1 229 0 172 1 47 3 37 2 71 0 204 0 161 2 242 2 192 0 242 0 93 2 180 3 54 1 31 0 104 2 107 3 121 1 86 0 124 2 19 3 116 1 152 0 146 1 170 3 79 1 232 0 173 1 44 3 36 2 73 0 205 0 158 2 240 2 193 0 242 0 93 2 179 3 56 1 32 0 105 2 106 3 121 1 87 0 124 2 18 3 116 1 152 0 146 1 167 3 79 1 232 0 174 1 41 3 35 2 74 0 205 0 155 2 239 2 195 0 243 0 92 2 177 3 57 1 33 0 105 2 104 3 122 1 88 0 124 2 15 3 114 1 153 0 147 1 165 3 78 1 233 0 174 1 38 3 34 2 71 0 204 0 152 2 237 2 198 0 244 0 92 2 177 3 61 1 34 0 106 2 102 3 122 1 89 0 124 2 13 3 114 1 156 0 148 1 163 3 77 1 235 0 174 1 36 3 33 2 77 0 206 0 151 2 237 2 201 0 245 0 92 2 175 3 62 1 35 0 106 2 101 3 124 1 91 0 125 2 11 3 113 1 157 0 148 1 162 3 77 1 237 0 175 1 33 3 33 2 78 0 207 0 150 2 236 2 202 0 245 0 92 2 174 3 61 1 35 0 106 2 99 3 122 1 90 0 125 2 9 3 113 1 156 0 148 1 159 3 76 1 236 0 175 1 30 3 31 2 79 0 207 0 148 2 235 2 201 0 245 0 91 2 172 3 60 1 35 0 106 2 97 3 122 1 90 0 125 2 8 3 112 1 158 0 148 1 157 3 75 1 239 0 176 1 28 3 31 2 83 0 208 0 146 2 234 2 210 0 248 0 92 2 172 3 65 1 37 0 107 2 96 3 124 1 92 0 126 2 7 3 112 1 160 0 149 1 157 3 75 1 241 0 176 1 28 3 31 2 85 0 209 0 145 2 234 2 208 0 247 0 92 2 171 3 65 1 37 0 106 2 96 3 124 1 93 0 126 2 6 3 112 1 159 0 149 1 154 3 74 1 242 0 176 1 25 3 30 2 86 0 209 0 143 2 232 2 210 0 248 0 92 2 170 3 66 1 38 0 107 2 94 3 124 1 94 0 126 2 4 3 111 1 161 0 149 1 153 3 74 1 242 0 177 1 23 3 29 2 87 0 210 0 142 2 232 2 212 0 248 0 92 2 169 3 70 1 40 0 107 2 94 3 125 1 95 0 127 2 2 3 110 1 163 0 150 1 152 3 73 1 243 0 177 1 19 3 27 2 89 0 210 0 140 2 231 2 214 0 249 0 92 2 168 3 70 1 40 0 107 2 92 3 125 1 96 0 127 2 3 3 110 1 164 0 150 1 152 3 73 1 246 0 178 1 23 3 29 2 90 0 211 0 141 2 232 2 216 0 250 0 92 2 168 3 71 1 40 0 108 2 93 3 126 1 97 0 127 2 2 3 110 1 164 0 150 1 151 3 73 1 246 0 178 1 19 3 28 2 91 0 211 0 140 2 231 2 217 0 250 0 92 2 167 3 70 1 40 0 108 2 91 3 125 1 96 0 127 2 1 3 110 1 165 0 151 1 148 3 72 1 246 0 178 1 17 3 27 2 92 0 211 0 139 2 230 2 220 0 251 0 92 2 166 3 74 1 42 0 109 2 90 3 125 1 98 0 128 1 253 3 108 1 165 0 151 1 146 3 71 1 248 0 179 1 15 3 26 2 95 0 212 0 137 2 229 2 220 0 251 0 92 2 164 3 74 1 42 0 108 2 88 3 125 1 99 0 128 1 255 3 109 1 167 0 151 1 145 3 70 1 247 0 178 1 15 3 26 2 93 0 211 0 136 2 228 2 220 0 251 0 92 2 164 3 73 1 41 0 108 2 90 3 126 1 99 0 128 1 254 3 109 1 167 0 151 1 148 3 72 1 250 0 179 1 18 3 27 2 95 0 212 0 139 2 230 2 223 0 252 0 93 2 167 3 77 1 44 0 109 2 92 3 127 1 100 0 128 2 3 3 110 1 169 0 152 1 151 3 73 1 253 0 180 1 23 3 29 2 99 0 213 0 144 2 233 2 226 0 253 0 93 2 169 3 79 1 44 0 109 2 95 3 130 1 102 0 129 2 7 3 112 1 171 0 152 1 170 3 79 2 2 0 182 1 53 3 39 2 107 0 216 0 166 2 244 2 232 0 255 0 145 2 230 3 112 1 58 0 150 2 223 3 180 1 131 0 140 2 148 3 160 1 202 0 164 1 191 3 87 2 1 0 182 1 51 3 38 2 100 0 214 0 160 2 241 2 225 0 253 0 97 2 181 3 81 1 45 0 109 2 111 3 134 1 102 0 129 2 25 3 118 1 170 0 153 1 187 3 86 1 255 0 181 1 172 3 80 2 130 0 224 1 61 3 42 3 7 1 9 0 213 3 7 3 125 1 63 0 136 2 209 3 173 1 124 0 137 2 126 3 153 1 192 0 161 2 20 3 117 2 18 0 188 1 138 3 69 2 117 0 220 1 32 3 33 2 253 1 6 0 179 2 248 3 113 1 57 0 117 2 180 3 161 1 113 0 133 2 117 3 150 1 188 0 159 2 41 3 124 2 19 0 188 1 168 3 79 2 118 0 220 0 159 2 239 2 209 0 247 0 93 2 175 3 70 1 38 0 107 2 101 3 127 1 93 0 126 2 7 3 112 1 159 0 149 1 156 3 75 1 239 0 176 1 27 3 31 2 83 0 208 0 147 2 234 2 206 0 246 0 93 2 172 3 68 1 37 0 107 2 100 3 127 1 94 0 126 2 90 3 140 1 180 0 156 2 48 3 126 2 21 0 189 1 231 3 101 2 135 0 226 1 131 3 67 3 16 1 13 1 6 3 25 3 130 1 63 0 160 2 233 3 182 1 126 0 138 2 145 3 159 1 190 0 160 2 59 3 130 2 18 0 188 1 167 3 79 2 110 0 218 0 248 3 19 2 229 0 254 0 149 2 231 3 97 1 48 0 112 2 169 3 155 1 106 0 131 2 90 3 141 1 173 0 154 1 250 3 108 1 255 0 181 1 188 3 86 2 115 0 219 1 67 3 45 2 244 1 3 0 198 3 0 3 109 1 53 0 137 2 213 3 171 1 113 0 133 2 115 3 149 1 176 0 155 2 51 3 128 2 10 0 185 1 187 3 86 2 108 0 217 1 103 3 57 2 247 1 4 0 217 3 9 3 110 1 52 0 127 2 201 3 166 1 109 0 132 2 134 3 156 1 178 0 156 2 80 3 137 2 15 0 187 1 205 3 92 2 109 0 218 1 84 3 51 2 239 1 2 0 207 3 4 3 105 1 49 0 121 2 192 3 161 1 105 0 130 2 132 3 155 1 177 0 155 2 41 3 124 2 2 0 182 1 171 3 81 2 95 0 213 1 37 3 35 2 220 0 252 0 169 2 242 3 91 1 43 0 112 2 176 3 153 1 98 0 128 2 99 3 144 1 165 0 151 2 39 3 123 1 254 0 181 1 198 3 90 2 99 0 214 1 67 3 45 2 222 0 252 0 175 2 246 3 90 1 43 0 110 2 170 3 149 1 95 0 127 2 65 3 132 1 155 0 148 1 229 3 100 1 236 0 177 2 200 3 178 2 162 0 236 1 36 3 35 2 210 0 249 0 117 2 207 3 72 1 112 3 60 3 217 3 255 3 227 3 255 3 255 3 255 1 248 0 182 1 216 3 96 1 218 0 169 1 49 3 38 2 46 0 196 0 100 2 202 2 133 0 223 0 82 2 150 3 19 1 14 0 98 2 132 3 128 1 79 0 121 2 30 3 119 1 139 0 142 1 192 3 87 1 217 0 168 1 43 3 36 2 124 0 221 0 90 2 183 2 128 0 222 0 81 2 95 2 250 1 5 0 95 2 12 3 79 1 59 0 114 1 156 3 74 1 112 0 132 2 58 3 130 1 252 0 180 1 136 3 68 2 74 0 206 0 205 3 3 2 182 0 239 0 106 2 197 3 53 1 27 0 103 2 94 3 113 1 73 0 119 2 14 3 114 1 138 0 141 1 104 3 57 1 201 0 162 0 228 3 12 2 38 0 193 0 103 2 206 2 149 0 229 0 91 2 180 3 46 1 25 0 102 2 67 3 104 1 234 3 67 3 219 3 255 2 16 1 54 1 235 3 104 2 26 0 205 2 232 3 189 2 155 3 14 3 204 3 255 3 106 1 44 0 127 2 202 3 43 1 22 0 102 2 45 3 84 1 56 0 113 1 227 3 99 1 121 0 135 1 77 3 47 1 188 0 158 0 201 3 2 2 22 0 188 0 91 2 195 2 129 0 222 0 83 2 163 3 25 1 16 0 99 2 66 3 95 1 62 0 115 1 219 3 96 1 121 0 135 1 141 3 69 1 203 0 163 1 13 3 26 2 40 0 194 0 131 2 224 2 151 0 229 0 91 2 179 3 37 1 21 0 101 2 111 3 117 1 73 0 119 1 242 3 104 1 129 0 138 1 155 3 74 1 210 0 166 0 207 3 4 2 30 0 190 0 97 2 200 2 140 0 226 0 82 2 133 3 14 1 13 0 98 2 82 3 108 1 71 0 118 1 255 3 109 1 136 0 141 1 111 3 59 1 204 0 163 0 232 3 13 2 41 0 194 0 102 2 205 2 146 0 227 0 83 2 135 3 20 1 15 0 99 2 73 3 105 1 70 0 118 1 213 3 95 1 128 0 138 1 101 3 56 1 203 0 163 0 216 3 7 2 39 0 194 0 104 2 207 2 151 0 229 0 84 2 138 3 24 1 17 0 99 2 61 3 100 1 69 0 117 1 219 3 96 1 131 0 139 1 109 3 58 1 206 0 164 0 228 3 11 2 42 0 194 0 108 2 210 2 157 0 231 0 85 2 146 3 29 1 19 0 100 2 65 3 103 1 71 0 118 1 224 3 99 1 134 0 140 1 112 3 59 1 212 0 166 0 243 3 17 2 52 0 198 0 110 2 211 2 164 0 233 0 86 2 146 3 36 1 22 0 101 2 64 3 105 1 74 0 119 1 224 3 98 1 137 0 141 1 114 3 60 1 215 0 167 0 233 3 13 2 54 0 199 0 114 2 214 2 171 0 235 0 86 2 146 3 37 1 23 0 101 2 69 3 108 1 76 0 120 1 244 3 105 1 143 0 143 1 118 3 61 1 218 0 168 1 13 3 25 2 65 0 202 0 115 2 215 2 174 0 237 0 86 2 153 3 45 1 26 0 102 2 69 3 109 1 77 0 120 1 229 3 100 1 142 0 143 1 120 3 62 1 221 0 169 0 234 3 13 2 59 0 200 0 115 2 214 2 177 0 237 0 87 2 148 3 45 1 26 0 102 2 69 3 110 1 79 0 121 1 227 3 99 1 143 0 143 1 117 3 61 1 223 0 170 0 246 3 17 2 66 0 202 0 115 2 214 2 181 0 239 0 87 2 145 3 45 1 26 0 103 2 66 3 110 1 80 0 122 1 235 3 102 1 148 0 145 1 122 3 62 1 226 0 171 0 238 3 15 2 66 0 202 0 124 2 221 2 188 0 241 0 88 2 151 3 50 1 28 0 103 2 81 3 118 1 86 0 123 1 236 3 102 1 148 0 145 1 123 3 63 1 228 0 172 1 93 3 53 2 92 0 211 0 125 2 220 2 190 0 242 0 88 2 152 3 53 1 30 0 104 2 83 3 119 1 86 0 124 2 46 3 125 1 165 0 151 1 244 3 105 2 1 0 192 2 223 3 185 2 193 0 245 1 55 3 41 2 240 1 2 0 113 2 201 3 78 1 39 0 108 2 74 3 113 1 81 0 122 1 231 3 101 1 143 0 165 2 225 3 186 2 57 0 226 2 248 3 194 2 191 0 245 0 130 2 220 2 175 0 237 0 90 2 173 3 57 1 30 0 104 2 75 3 112 1 79 0 121 1 228 3 100 1 141 0 143 1 139 3 69 1 224 0 170 1 44 3 36 2 73 0 205 0 153 2 237 2 192 0 242 0 90 2 167 3 54 1 29 0 104 2 71 3 110 1 79 0 121 2 14 3 114 1 151 0 146 1 117 3 61 1 220 0 169 1 67 3 44 2 81 0 207 0 117 2 215 2 178 0 238 0 88 2 161 3 54 1 30 0 104 2 89 3 120 1 85 0 123 1 232 3 101 1 145 0 144 1 116 3 61 1 222 0 170 0 237 3 14 2 61 0 201 0 112 2 212 2 179 0 238 0 87 2 148 3 47 1 27 1 163 3 79 3 219 1 146 1 12 3 28 3 205 1 219 0 239 3 13 3 201 2 63 0 207 2 216 3 184 2 176 0 240 2 134 3 156 3 53 1 25 2 40 3 125 3 167 1 76 1 180 3 86 3 219 1 135 1 39 3 38 3 209 1 207 0 192 2 237 3 191 2 36 2 39 3 127 3 239 2 192 0 246 0 206 3 4 2 169 0 236 0 108 2 200 3 46 1 24 0 102 2 122 3 121 1 75 0 120 2 57 3 129 1 228 3 77 3 222 3 255 2 83 1 23 3 27 3 206 2 204 1 143 3 32 3 209 3 80 1 101 3 56 3 216 3 188 1 79 0 123 2 166 3 131 1 74 1 9 3 27 3 205 1 181 0 157 1 18 3 27 1 161 2 186 3 174 3 253 2 190 2 34 3 114 3 236 3 24 1 18 0 101 2 146 2 232 0 254 0 93 2 52 3 71 1 44 0 109 1 176 3 79 1 95 0 126 1 52 3 39 1 164 0 150 2 106 3 146 2 96 0 214 0 124 2 217 2 107 1 33 2 6 3 113 3 117 1 49 0 111 2 76 3 82 1 49 0 111 1 201 3 88 1 100 0 128 1 157 3 75 1 185 0 157 1 32 3 32 2 16 0 186 0 175 2 247 2 131 0 223 0 93 2 183 3 6 1 9 0 96 2 139 3 113 1 63 2 106 3 148 3 244 1 203 0 165 1 234 3 102 1 197 0 162 1 65 3 44 2 22 0 188 0 177 2 248 2 130 0 223 0 92 2 181 3 3 1 7 0 96 2 105 3 98 1 57 0 113 2 23 3 117 1 117 0 134 1 151 3 73 1 185 0 157 0 218 3 8 2 3 0 182 0 97 2 201 2 106 0 215 0 79 2 118 2 224 0 252 0 92 2 29 3 63 1 42 0 108 1 182 3 82 1 98 0 127 1 66 3 43 1 171 0 152 0 182 2 251 2 0 0 181 0 89 2 195 2 108 0 215 0 79 2 124 2 235 0 255 0 93 2 41 3 71 1 47 0 110 1 197 3 88 1 105 0 130 1 81 3 48 1 176 0 154 0 197 3 0 2 6 0 183 0 98 2 202 2 117 0 218 0 80 2 143 2 251 1 5 0 95 2 124 3 113 1 67 0 117 1 248 3 106 1 119 0 134 1 95 3 53 1 182 0 156 1 62 3 42 2 38 0 193 0 220 3 9 2 163 0 233 0 143 2 229 3 51 1 25 0 102 2 155 3 131 1 76 0 121 2 64 3 131 1 136 0 141 1 212 3 94 1 210 0 166 1 99 3 55 2 46 0 196 0 180 2 250 2 151 0 230 0 110 2 204 3 37 1 20 0 101 2 124 3 116 1 69 0 118 2 36 3 122 1 129 0 139 1 193 3 88 1 205 0 164 1 95 3 53 2 45 0 196 0 192 2 255 2 155 0 231 0 127 2 217 3 44 1 23 0 102 2 133 3 119 1 71 0 118 2 58 3 130 1 134 0 140 1 221 3 98 1 211 0 166 1 109 3 59 2 46 0 196 0 185 2 252 2 149 0 229 0 128 2 219 3 42 1 22 0 101 2 153 3 128 1 75 0 120 2 73 3 135 1 136 0 141 1 235 3 102 1 213 0 167 1 141 3 70 2 55 0 199 1 14 3 27 2 173 0 237 0 154 2 235 3 54 1 26 0 103 2 161 3 131 1 76 0 120 2 81 3 137 1 139 0 142 1 225 3 99 1 211 0 167 1 163 3 77 2 61 0 201 0 234 3 14 2 164 0 234 0 126 2 217 3 41 1 21 0 101 2 158 3 129 1 75 0 120 2 69 3 133 1 135 0 140 1 214 3 95 1 207 0 165 1 94 3 53 2 41 0 195 0 225 3 11 2 158 0 232 0 115 2 208 3 33 1 19 0 100 2 147 3 124 1 72 0 119 2 62 3 131 1 134 0 140 2 9 3 112 1 219 0 169 1 124 3 64 2 48 0 197 1 25 3 30 2 172 0 237 0 157 2 237 3 52 1 25 0 120 2 202 3 149 1 84 0 124 2 108 3 146 1 143 0 143 2 50 3 127 1 227 0 172 1 218 3 97 2 70 0 205 1 103 3 57 2 188 0 242 0 207 3 5 3 63 1 30 0 122 2 204 3 148 1 83 0 123 2 136 3 156 1 146 0 145 2 22 3 117 1 216 0 168 1 184 3 85 2 57 0 200 1 38 3 35 2 166 0 235 0 157 2 236 3 43 1 22 0 106 2 176 3 134 1 75 0 120 2 85 3 139 1 134 0 140 1 248 3 107 1 208 0 165 1 152 3 73 2 47 0 197 1 20 3 28 2 159 0 232 0 142 2 228 3 36 1 19 0 106 2 179 3 133 1 74 0 119 2 98 3 143 1 135 0 141 2 45 3 126 1 219 0 169 1 202 3 91 2 56 0 200 1 63 3 43 2 168 0 235 0 197 3 0 3 52 1 25 0 119 2 202 3 142 1 77 0 121 2 94 3 142 1 132 0 140 2 45 3 125 1 218 0 169 1 192 3 88 2 54 0 199 1 32 3 33 2 157 0 232 0 158 2 237 3 38 1 20 0 113 2 194 3 138 1 76 0 120 2 98 3 143 1 132 0 140 2 14 3 115 1 208 0 165 1 135 3 68 2 36 0 193 1 10 3 25 2 146 0 228 0 166 2 242 3 37 1 19 0 111 2 190 3 135 1 73 0 119 2 89 3 140 1 129 0 139 2 16 3 115 1 206 0 165 1 165 3 78 2 42 0 195 1 43 3 36 2 156 0 232 0 133 2 222 3 21 1 14 0 101 2 170 3 123 1 67 0 117 2 126 3 153 1 137 0 141 2 46 3 125 1 213 0 167 1 210 3 94 2 50 0 198 1 80 3 49 2 162 0 234 0 203 3 3 3 43 1 22 0 117 2 200 3 137 1 73 0 119 2 135 3 156 1 137 0 142 2 44 3 125 1 210 0 166 1 164 3 78 2 37 0 193 1 27 3 31 2 146 0 228 0 198 3 1 3 41 1 20 0 116 2 199 3 134 1 71 0 119 2 101 3 144 1 127 0 138 2 16 3 115 1 201 0 163 1 203 3 91 2 43 0 196 1 48 3 38 2 145 0 228 0 194 2 255 3 33 1 17 0 115 2 199 3 132 1 69 0 118 2 99 3 143 1 125 0 137 2 46 3 126 1 205 0 164 1 167 3 79 2 31 0 192 1 60 3 42 2 144 0 228 0 143 2 229 3 13 1 11 0 112 2 197 3 131 1 69 0 118 2 131 3 154 1 131 0 140 2 47 3 126 1 206 0 165 1 195 3 89 2 37 0 194 1 68 3 45 2 147 0 229 0 186 2 252 3 27 1 15 0 111 2 193 3 126 1 66 0 117 2 97 3 142 1 120 0 136 2 7 3 112 1 191 0 160 1 191 3 87 2 33 0 193 1 77 3 48 2 146 0 229 0 151 2 234 3 9 1 9 0 114 2 200 3 129 1 66 0 117 2 131 3 154 1 127 0 138 2 15 3 115 1 192 0 160 1 198 3 89 2 32 0 192 1 86 3 51 2 142 0 227 0 220 3 10 3 22 1 14 0 114 2 197 3 123 1 63 0 116 2 133 3 154 1 124 0 137 2 49 3 127 1 197 0 162 1 209 3 94 2 31 0 192 1 61 3 43 2 132 0 224 0 204 3 4 3 17 1 12 0 118 2 203 3 124 1 62 0 116 2 114 3 147 1 117 0 135 2 19 3 116 1 187 0 158 1 176 3 82 2 20 0 188 1 84 3 50 2 135 0 225 0 214 3 7 3 14 1 11 0 103 2 177 3 107 1 54 0 113 2 111 3 145 1 115 0 134 2 35 3 122 1 190 0 159 1 210 3 94 2 26 0 190 1 92 3 53 2 135 0 225 0 215 3 8 3 15 1 11 0 118 2 203 3 119 1 60 0 115 2 139 3 155 1 121 0 136 2 54 3 129 1 192 0 160 1 219 3 97 2 25 0 189 1 51 3 39 2 119 0 220 0 206 3 4 3 6 1 8 0 117 2 203 3 116 1 57 0 114 2 135 3 153 1 117 0 134 2 52 3 128 1 187 0 159 1 210 3 94 2 17 0 187 1 33 3 33 2 110 0 217 0 225 3 11 3 7 1 8 0 103 2 181 3 101 1 50 0 111 2 101 3 139 1 107 0 131 2 25 3 118 1 180 0 156 1 209 3 93 2 18 0 187 1 78 3 48 2 120 0 220 0 217 3 8 3 4 1 8 0 120 2 206 3 115 1 56 0 114 2 137 3 153 1 114 0 134 2 56 3 129 1 185 0 158 1 218 3 96 2 14 0 186 1 92 3 53 2 119 0 220 0 216 3 8 2 253 1 5 0 120 2 207 3 111 1 54 0 113 2 116 3 144 1 106 0 131 2 46 3 126 1 179 0 156 1 220 3 98 2 12 0 185 1 103 3 57 2 118 0 220 0 186 2 252 2 238 1 1 0 108 2 193 3 100 1 49 0 111 2 116 3 143 1 105 0 131 2 59 3 130 1 181 0 157 1 195 3 88 2 5 0 183 1 69 3 45 2 108 0 216 0 216 3 8 2 248 1 4 0 119 2 205 3 106 1 51 0 112 2 159 3 160 1 115 0 231 3 12 3 201 1 226 0 173 1 211 3 94 2 5 0 183 1 67 3 44 2 102 0 214 0 187 2 252 2 231 0 255 0 122 2 210 3 105 1 50 0 111 2 118 3 142 1 101 0 129 2 72 3 134 1 179 0 156 1 227 3 100 2 5 0 183 1 120 3 63 2 110 0 217 0 237 3 16 2 239 1 1 0 123 2 211 3 101 1 48 0 111 2 139 3 149 1 103 0 130 2 80 3 137 1 177 0 155 1 228 3 100 2 2 0 182 1 118 3 62 2 106 0 216 0 227 3 12 2 232 0 255 0 122 2 210 3 97 1 46 0 110 2 127 3 143 1 99 0 128 2 45 3 125 1 168 0 152 1 189 3 86 1 248 0 179 1 74 3 47 2 95 0 212 0 208 3 5 2 226 0 253 0 133 2 219 3 101 1 48 0 110 2 154 3 154 1 105 0 130 2 94 3 142 1 178 0 156 2 9 3 113 2 6 0 184 2 107 3 147 2 158 0 234 0 179 2 248 2 207 0 247 0 116 2 205 3 86 1 41 0 108 2 138 3 146 1 97 0 128 2 70 3 134 1 168 0 152 1 236 3 103 1 250 0 180 1 126 3 65 2 95 0 213 0 208 3 5 2 210 0 248 0 136 2 222 3 92 1 43 0 109 2 155 3 151 1 98 0 128 2 82 3 138 1 165 0 151 1 218 3 97 1 242 0 177 1 90 3 52 2 84 0 209 0 206 3 4 2 208 0 248 0 146 2 230 3 96 1 44 0 111 2 173 3 158 1 103 0 130 2 73 3 135 1 165 0 151 1 202 3 91 1 240 0 176 1 58 3 41 2 78 0 207 0 179 2 249 2 197 0 244 0 103 2 190 3 73 1 35 0 106 2 160 3 153 1 100 0 129 2 71 3 134 1 165 0 151 1 254 3 109 1 251 0 180 1 149 3 73 2 96 0 213 1 12 3 26 2 221 0 252 0 151 2 233 3 94 1 43 0 110 2 169 3 155 1 99 0 128 2 94 3 142 1 166 0 151 2 1 3 111 1 246 0 178 1 164 3 78 2 92 0 212 2 60 3 131 3 26 1 16 1 214 3 97 3 150 1 65 1 97 3 57 3 208 1 123 0 222 3 8 3 199 1 196 0 167 2 203 3 179 2 25 0 191 2 113 3 149 2 128 0 224 2 51 3 128 3 6 1 10 0 254 3 22 3 100 1 44 0 111 2 173 3 149 1 88 0 125 2 123 3 152 1 158 0 149 1 219 3 97 1 224 0 171 1 73 3 46 2 57 0 200 0 193 2 255 2 177 0 238 0 126 2 216 3 66 1 30 0 104 2 146 3 138 1 83 0 123 2 74 3 135 1 149 0 145 1 233 3 102 1 227 0 172 1 127 3 65 2 67 0 203 0 248 3 19 2 187 0 241 0 135 2 222 3 65 1 30 0 104 2 159 3 141 1 83 0 123 2 82 3 138 1 147 0 145 1 242 3 105 1 225 0 171 1 141 3 70 2 66 0 203 1 12 3 26 2 186 0 241 0 136 2 223 3 61 1 29 0 104 2 158 3 140 1 83 0 123 2 86 3 139 1 148 0 145 1 248 3 107 1 225 0 171 1 142 3 70 2 65 0 203 0 249 3 20 2 180 0 239 0 141 2 227 3 63 1 29 0 104 2 159 3 141 1 83 0 123 2 82 3 138 1 147 0 145 1 244 3 106 1 226 0 171 1 136 3 68 2 66 0 203 1 0 3 22 2 185 0 240 0 143 2 228 3 64 1 30 0 104 2 160 3 141 1 82 0 123 2 88 3 140 1 147 0 145 1 242 3 105 1 223 0 171 1 148 3 73 2 63 0 202 1 6 3 24 2 179 0 239 0 147 2 230 3 62 1 29 0 105 2 166 3 141 1 82 0 122 2 94 3 142 1 145 0 144 2 7 3 112 1 224 0 171 1 158 3 76 2 64 0 203 1 27 3 31 2 181 0 239 0 156 2 236 3 61 1 28 0 105 2 168 3 140 1 80 0 122 2 94 3 142 1 144 0 144 2 9 3 113 1 223 0 170 1 156 3 75 2 62 0 202 1 28 3 31 2 179 0 239 0 156 2 236 3 60 1 28 0 104 2 164 3 138 1 79 0 121 2 94 3 142 1 145 0 144 2 2 3 111 1 221 0 170 1 151 3 74 2 60 0 201 1 12 3 26 2 174 0 237 0 149 2 232 3 56 1 26 0 103 2 161 3 135 1 77 0 121 2 89 3 140 1 142 0 143 1 250 3 108 1 216 0 168 1 140 3 70 2 53 0 199 1 3 3 23 2 167 0 235 0 143 2 228 3 50 1 24 0 103 2 164 3 135 1 76 0 120 2 90 3 140 1 139 0 142 1 255 3 109 1 215 0 168 1 154 3 75 2 52 0 199 1 29 3 32 2 171 0 236 0 158 2 237 3 52 1 25 0 107 2 180 3 141 1 78 0 121 2 107 3 146 1 142 0 143 2 16 3 115 1 217 0 169 1 165 3 78 2 54 0 199 1 32 3 33 2 169 0 236 0 160 2 239 3 51 1 24 0 106 2 176 3 139 1 77 0 121 2 104 3 145 1 139 0 142 2 15 3 115 1 216 0 168 1 171 3 80 2 55 0 199 1 49 3 38 2 170 0 236 0 176 2 247 3 53 1 25 0 109 2 183 3 140 1 76 0 121 2 110 3 147 1 140 0 142 2 19 3 116 1 214 0 168 1 165 3 78 2 49 0 198 1 34 3 34 2 163 0 234 0 154 2 235 3 40 1 20 0 103 2 171 3 132 1 72 0 119 2 98 3 143 1 135 0 141 1 255 3 109 1 209 0 166 1 61 3 42 2 26 0 190 0 105 2 207 2 108 0 215 0 79 2 91 2 208 0 246 0 89 2 1 3 52 1 37 0 106 1 147 3 69 1 92 0 125 1 19 3 27 1 162 0 149 0 132 2 228 1 245 0 177 0 70 2 166 2 89 0 209 0 77 2 93 2 219 0 250 0 91 2 15 3 62 1 43 0 108 2 92 3 141 1 140 0 142 2 27 3 119 1 222 0 170 1 176 3 82 2 60 0 201 1 42 3 36 2 174 0 238 0 159 2 238 3 51 1 25 0 106 2 177 3 138 1 77 0 121 2 109 3 147 1 141 0 143 2 14 3 115 1 217 0 168 1 126 3 64 2 44 0 196 0 86 2 185 2 98 0 212 0 78 2 107 2 224 0 251 0 92 2 24 3 63 1 43 0 108 1 173 3 79 1 99 0 128 1 51 3 38 1 169 0 151 0 165 2 244 1 253 0 180 0 79 2 181 2 101 0 213 0 78 2 112 2 229 0 253 0 92 2 35 3 71 1 47 0 110 2 107 3 146 1 143 0 144 2 53 3 128 1 229 0 173 1 220 3 98 2 70 0 205 1 97 3 55 2 187 0 242 0 211 3 6 3 66 1 30 0 120 2 201 3 148 1 83 0 123 2 128 3 153 1 146 0 144 2 39 3 123 1 222 0 170 1 182 3 84 2 57 0 200 0 179 2 249 2 140 0 226 0 83 2 151 2 248 1 4 0 95 2 34 3 67 1 45 0 109 1 189 3 85 1 103 0 129 1 69 3 44 1 172 0 152 0 181 2 250 2 1 0 181 0 84 2 188 2 105 0 214 0 78 2 122 2 235 0 255 0 93 2 39 3 71 1 48 0 110 1 201 3 89 1 106 0 130 2 44 3 125 1 224 0 171 1 242 3 105 2 75 0 206 1 118 3 62 2 190 0 243 0 238 3 16 3 70 1 32 0 130 2 212 3 151 1 84 0 123 2 147 3 160 1 148 0 145 2 66 3 132 1 224 0 171 1 226 3 99 2 63 0 202 1 109 3 59 2 178 0 239 0 240 3 17 3 59 1 27 0 133 2 216 3 146 1 78 0 121 2 150 3 161 1 143 0 144 2 68 3 133 1 219 0 169 1 231 3 101 2 57 0 201 1 115 3 61 2 172 0 237 0 240 3 17 3 54 1 25 0 132 2 215 3 145 1 77 0 121 2 144 3 159 1 139 0 142 2 62 3 131 1 215 0 168 1 228 3 100 2 52 0 199 1 103 3 57 2 164 0 234 0 231 3 14 3 47 1 22 0 128 2 212 3 138 1 72 0 119 2 144 3 159 1 135 0 141 2 61 3 131 1 210 0 166 1 228 3 100 2 47 0 197 1 111 3 60 2 159 0 233 0 237 3 16 3 42 1 21 0 128 2 211 3 136 1 70 0 118 2 146 3 159 1 133 0 140 2 65 3 132 1 207 0 165 1 232 3 102 2 44 0 196 1 119 3 63 2 155 0 231 0 233 3 14 3 34 1 18 0 133 2 217 3 135 1 68 0 118 2 157 3 163 1 131 0 140 2 77 3 136 1 206 0 165 1 228 3 100 2 37 0 194 1 117 3 62 2 147 0 229 0 231 3 14 3 27 1 15 0 144 2 226 3 137 1 69 0 118 2 151 3 160 1 127 0 138 2 61 3 131 1 199 0 162 1 228 3 100 2 34 0 193 1 110 3 59 2 142 0 227 0 229 3 13 3 22 1 14 0 123 2 208 3 125 1 63 0 116 2 147 3 159 1 125 0 137 2 68 3 133 1 197 0 162 1 229 3 101 2 30 0 191 1 116 3 61 2 137 0 226 0 232 3 14 3 17 1 12 0 134 2 218 3 127 1 63 0 116 2 150 3 159 1 122 0 136 2 72 3 134 1 194 0 161 1 230 3 101 2 23 0 189 1 128 3 66 2 133 0 225 0 237 3 16 3 11 1 10 0 139 2 222 3 124 1 61 0 115 2 158 3 162 1 121 0 136 2 76 3 136 1 191 0 160 1 244 3 106 2 24 0 190 1 130 3 66 2 131 0 224 0 250 3 20 3 9 1 9 0 139 2 222 3 121 1 58 0 114 2 149 3 157 1 116 0 134 2 72 3 134 1 187 0 159 1 237 3 103 2 18 0 188 1 112 3 60 2 123 0 221 0 241 3 17 3 2 1 7 0 133 2 218 3 116 1 55 0 113 2 155 3 159 1 116 0 134 2 80 3 137 1 186 0 158 1 252 3 109 2 18 0 188 1 130 3 66 2 120 0 220 0 230 3 13 2 247 1 4 0 117 2 204 3 104 1 50 0 111 2 139 3 152 1 108 0 131 2 49 3 126 1 174 0 154 1 213 3 95 2 4 0 183 1 94 3 54 2 107 0 216 0 208 3 5 2 232 0 255 0 112 2 199 3 97 1 47 0 110 2 137 3 149 1 104 0 130 2 55 3 129 1 173 0 153 1 215 3 96 2 0 0 181 1 89 3 52 2 101 0 214 0 209 3 6 2 232 0 255 0 117 2 205 3 96 1 46 0 110 2 139 3 150 1 104 0 130 2 55 3 129 1 173 0 154 1 223 3 99 2 2 0 182 1 94 3 54 2 104 0 215 0 212 3 6 2 233 0 255 0 120 2 208 3 100 1 48 0 110 2 136 3 148 1 103 0 130 2 53 3 128 1 171 0 153 1 219 3 97 2 0 0 181 1 110 3 59 2 103 0 215 0 225 3 12 2 233 0 255 0 127 2 214 3 100 1 47 0 110 2 153 3 154 1 104 0 130 2 64 3 132 1 170 0 153 1 230 3 101 1 254 0 181 1 117 3 62 2 102 0 215 0 233 3 14 2 226 0 253 0 125 2 213 3 94 1 44 0 109 2 146 3 150 1 101 0 129 2 67 3 133 1 169 0 152 1 234 3 102 1 252 0 180 1 124 3 64 2 96 0 213 0 240 3 17 2 223 0 252 0 128 2 215 3 94 1 44 0 109 2 153 3 153 1 101 0 129 2 75 3 136 1 169 0 152 1 244 3 106 1 254 0 181 1 141 3 70 2 102 0 215 0 255 3 22 2 226 0 253 0 143 2 227 3 97 1 45 0 110 2 161 3 155 1 102 0 129 2 88 3 140 1 170 0 153 1 255 3 110 1 251 0 180 1 149 3 73 2 99 0 214 1 20 3 29 2 225 0 253 0 151 2 232 3 95 1 44 0 111 2 171 3 157 1 101 0 129 2 94 3 142 1 168 0 152 2 10 3 114 1 250 0 180 1 170 3 80 2 97 0 213 1 31 3 33 2 220 0 252 0 155 2 235 3 91 1 41 0 111 2 175 3 157 1 98 0 128 2 95 3 143 1 163 0 150 2 3 3 111 1 243 0 177 1 152 3 74 2 89 0 211 1 21 3 29 2 210 0 248 0 150 2 232 3 86 1 39 0 110 2 175 3 155 1 95 0 127 2 102 3 145 1 164 0 151 2 5 3 112 1 242 0 177 1 159 3 77 2 85 0 209 1 21 3 29 2 207 0 247 0 155 2 235 3 86 1 39 0 111 2 177 3 155 1 94 0 127 2 103 3 145 1 161 0 150 2 15 3 115 1 242 0 177 1 165 3 78 2 83 0 209 1 38 3 35 2 203 0 247 0 159 2 237 3 79 1 36 0 110 2 176 3 152 1 90 0 126 2 98 3 143 1 155 0 148 2 10 3 113 1 232 0 174 1 162 3 77 2 73 0 205 1 36 3 34 2 191 0 243 0 152 2 233 3 69 1 32 0 110 2 181 3 151 1 89 0 125 2 93 3 142 1 151 0 146 2 5 3 112 1 229 0 173 1 155 3 75 2 69 0 204 1 17 3 28 2 187 0 241 0 148 2 231 3 65 1 30 0 107 2 172 3 146 1 85 0 124 2 90 3 141 1 149 0 146 2 14 3 115 1 230 0 173 1 161 3 77 2 67 0 203 1 14 3 27 2 182 0 240 0 149 2 232 3 65 1 30 0 106 2 171 3 143 1 83 0 123 2 96 3 143 1 147 0 145 2 10 3 113 1 226 0 171 1 158 3 76 2 63 0 202 1 34 3 34 2 182 0 240 0 161 2 239 3 62 1 28 0 107 2 175 3 142 1 80 0 122 2 103 3 145 1 144 0 144 2 17 3 116 1 222 0 170 1 168 3 79 2 60 0 201 1 43 3 37 2 176 0 238 0 164 2 240 3 55 1 26 0 107 2 180 3 142 1 79 0 121 2 99 3 144 1 140 0 142 2 22 3 117 1 220 0 170 1 161 3 77 2 54 0 199 1 51 3 39 2 174 0 237 0 165 2 241 3 53 1 25 0 108 2 182 3 141 1 77 0 121 2 96 3 143 1 138 0 142 2 17 3 115 1 216 0 168 1 174 3 81 2 53 0 199 1 55 3 41 2 171 0 236 0 174 2 245 3 50 1 24 0 109 2 185 3 140 1 76 0 121 2 117 3 150 1 140 0 143 2 30 3 120 1 216 0 168 1 192 3 88 2 53 0 199 1 69 3 46 2 168 0 235 0 186 2 252 3 47 1 22 0 114 2 194 3 140 1 75 0 120 2 126 3 153 1 136 0 141 2 39 3 123 1 211 0 166 1 199 3 90 2 48 0 197 1 96 3 55 2 166 0 235 0 191 2 254 3 41 1 20 0 115 2 196 3 138 1 73 0 119 2 120 3 151 1 134 0 140 2 51 3 127 1 213 0 167 1 199 3 90 2 47 0 197 1 81 3 50 2 160 0 233 0 192 2 254 3 40 1 20 0 116 2 198 3 138 1 72 0 119 2 126 3 153 1 134 0 141 2 44 3 125 1 209 0 166 1 197 3 90 2 44 0 196 1 75 3 47 2 157 0 232 0 190 2 253 3 37 1 19 0 114 2 195 3 135 1 71 0 118 2 124 3 152 1 131 0 140 2 34 3 122 1 206 0 165 1 199 3 90 2 41 0 195 1 82 3 50 2 153 0 231 0 200 3 1 3 35 1 18 0 116 2 198 3 132 1 68 0 118 2 129 3 154 1 129 0 139 2 52 3 128 1 204 0 164 1 207 3 93 2 41 0 195 1 67 3 45 2 147 0 229 0 187 2 252 3 28 1 16 0 109 2 188 3 127 1 66 0 117 2 122 3 151 1 127 0 138 2 32 3 121 1 200 0 163 1 177 3 82 2 32 1 1 3 17 3 203 2 248 1 7 0 199 3 0 3 24 1 14 0 108 2 187 3 123 1 62 0 116 2 114 3 148 2 26 3 127 3 239 3 255 2 38 0 197 1 209 3 94 2 27 0 191 1 46 3 38 2 125 0 222 0 164 2 241 3 4 1 7 0 102 2 178 3 114 1 57 0 114 2 101 3 143 1 115 0 134 2 16 3 115 1 188 0 159 1 182 3 84 2 22 0 189 1 53 3 40 2 128 0 223 0 167 2 242 3 4 1 7 0 106 2 186 3 115 1 57 0 114 2 118 3 149 1 117 0 134 2 26 3 119 1 185 0 158 1 174 3 81 2 16 0 187 1 44 3 36 2 123 0 221 0 173 2 245 3 2 1 7 0 102 2 180 3 110 1 55 0 113 2 103 3 143 1 113 0 133 2 21 3 117 1 186 0 158 1 177 3 82 2 16 0 187 1 44 3 37 2 121 0 221 0 169 2 244 3 1 1 7 0 106 2 188 3 114 1 56 0 113 2 99 3 142 1 112 0 133 2 19 3 116 1 185 0 158 1 165 3 78 2 14 0 186 1 45 3 37 2 119 0 220 0 157 2 238 2 250 1 4 0 102 2 182 3 110 1 55 0 113 2 102 3 142 1 111 0 132 2 28 3 119 1 184 0 157 1 185 3 85 2 16 0 187 1 51 3 39 2 118 0 220 0 176 2 247 3 0 1 6 0 112 2 197 3 115 1 56 0 114 2 117 3 147 1 114 0 133 2 42 3 125 1 187 0 158 1 202 3 91 2 19 0 188 1 75 3 47 2 123 0 221 0 198 3 1 3 2 1 7 0 117 2 203 3 117 1 57 0 114 2 128 3 151 1 114 0 133 2 51 3 128 1 186 0 158 1 208 3 93 2 15 0 186 1 91 3 53 2 122 0 221 0 212 3 7 3 2 1 7 0 120 2 206 3 114 1 55 0 113 2 127 3 150 1 111 0 133 2 54 3 129 1 185 0 158 1 204 3 92 2 13 0 186 1 77 3 48 2 118 0 220 0 203 3 3 2 253 1 5 0 114 2 200 3 109 1 53 0 112 2 127 3 150 1 111 0 133 2 49 3 127 1 182 0 157 1 200 3 90 2 11 0 185 1 93 3 54 2 118 0 220 0 207 3 5 2 250 1 4 0 118 2 205 3 111 1 53 0 112 2 136 3 152 1 111 0 133 2 61 3 131 1 183 0 157 1 215 3 95 2 12 2 21 3 122 3 236 2 221 0 255 1 42 3 37 3 2 1 7 0 127 2 212 3 107 1 50 0 111 2 136 3 150 1 105 0 130 2 54 3 128 1 176 0 154 1 210 3 94 2 3 0 182 1 93 3 54 2 107 0 216 0 210 3 6 2 234 1 0 0 118 2 205 3 100 1 47 0 110 2 130 3 148 1 103 0 130 2 47 3 126 1 172 0 153 1 213 3 95 1 254 0 181 1 82 3 50 2 100 0 214 0 191 2 254 2 226 0 253 0 108 2 194 3 93 1 44 0 109 2 124 3 145 1 101 0 129 2 41 3 124 1 170 0 153 1 203 3 92 1 255 0 181 1 83 3 50 2 102 0 214 0 188 2 253 2 225 0 252 0 113 2 200 3 97 1 45 0 110 2 131 3 147 1 103 0 130 2 47 3 126 1 171 0 153 1 210 3 94 1 255 0 181 1 92 3 53 2 101 0 214 0 239 3 16 2 234 1 0 0 145 2 227 3 107 1 49 0 111 2 156 3 156 1 105 0 131 2 69 3 134 1 171 0 153 1 225 3 99 1 253 0 180 1 112 3 60 2 98 0 213 0 229 3 13 2 223 0 252 0 130 2 217 3 96 1 44 0 109 2 145 3 150 1 100 0 129 2 61 3 131 1 166 0 151 1 227 3 100 1 251 0 180 1 105 3 57 2 94 0 212 0 222 3 10 2 221 0 252 0 126 2 213 3 96 1 44 0 109 2 148 3 152 1 101 0 129 2 61 3 131 1 167 0 152 1 238 3 104 1 252 0 180 1 115 3 61 2 96 0 213 0 243 3 18 2 226 0 253 0 132 2 219 3 98 1 45 0 110 2 153 3 153 1 101 0 129 2 77 3 136 1 169 0 152 1 242 3 105 1 252 0 180 1 120 3 63 2 93 0 212 1 1 3 22 2 222 0 252 0 132 2 218 3 90 1 41 0 108 2 161 3 154 1 99 0 128 2 82 3 138 1 165 0 151 1 244 3 106 1 247 0 179 1 135 3 68 2 90 0 211 0 253 3 21 2 212 0 249 0 139 2 224 3 87 1 39 0 108 2 159 3 151 1 95 0 127 2 83 3 139 1 164 0 151 1 245 3 106 1 245 0 178 1 121 3 63 2 86 0 209 0