0 80 1 214 2 241 1 3 0 94 1 94 3 52 1 53 0 111 0 208 3 32 1 114 0 133 0 93 2 230 1 187 0 158 0 59 2 163 2 20 0 187 0 69 2 83 2 133 0 223 0 82 1 243 3 3 1 9 0 96 1 128 3 68 1 61 0 114 0 251 3 47 1 121 0 135 0 119 2 248 1 191 0 159 0 62 2 182 2 26 0 189 0 70 2 105 2 137 0 224 0 82 2 13 3 10 1 12 0 98 1 160 3 76 1 63 0 115 1 46 3 64 1 127 0 138 0 165 3 15 1 205 0 164 1 25 3 58 2 111 2 15 3 147 3 255 3 160 1 63 2 213 3 212 3 243 1 107 2 69 3 164 3 255 1 166 1 44 3 68 3 248 1 231 0 183 2 240 3 220 2 58 0 203 0 99 2 223 2 21 0 188 0 70 2 138 2 125 0 222 0 82 2 51 2 253 1 6 0 95 1 203 3 79 1 56 0 113 1 83 3 77 1 115 0 134 0 192 3 26 1 186 0 158 0 87 2 222 2 18 0 187 0 69 2 151 2 126 0 222 0 82 2 68 2 254 1 7 0 96 1 222 3 82 1 56 0 113 1 102 3 83 1 115 0 134 0 209 3 32 1 185 0 157 0 105 2 237 2 18 2 166 3 197 3 255 3 131 1 53 0 114 2 81 2 241 1 2 0 95 1 216 3 69 1 47 0 110 1 95 3 80 1 104 0 130 0 207 3 32 1 173 0 153 0 94 2 230 2 3 0 182 0 68 2 162 2 109 0 216 0 80 2 82 2 244 1 3 0 94 1 242 3 77 1 50 0 111 1 127 3 91 1 111 0 132 0 248 3 46 1 181 0 156 0 115 2 245 2 14 0 186 0 70 2 180 2 120 0 220 0 81 2 102 2 249 1 5 0 95 2 8 3 83 1 52 0 112 1 155 3 101 1 113 0 133 1 22 3 56 1 182 0 156 0 137 3 2 2 14 0 186 0 74 2 195 2 120 0 220 0 81 2 119 2 248 1 4 0 95 2 29 3 84 1 51 0 111 1 178 3 107 1 110 0 132 1 49 3 66 1 178 0 156 0 158 3 13 2 7 0 184 0 79 2 207 2 115 0 219 0 81 2 133 2 243 1 3 0 95 2 46 3 87 1 51 0 112 1 199 3 113 1 109 0 132 1 74 3 74 1 180 0 156 0 183 3 23 2 8 0 184 0 87 2 219 2 118 0 219 0 81 2 148 2 245 1 3 0 95 2 61 3 89 1 52 0 112 1 218 3 119 1 110 0 132 1 98 3 82 1 179 0 156 0 208 3 32 2 8 0 185 0 98 2 230 2 113 0 218 0 80 2 159 2 241 1 2 0 94 2 78 3 90 1 51 0 111 1 235 3 123 1 107 0 131 1 116 3 89 1 177 0 155 0 233 3 41 2 5 0 183 0 109 2 239 2 107 0 216 0 80 2 172 2 235 1 0 0 94 2 91 3 84 1 47 0 110 1 250 3 127 1 106 0 131 1 138 3 97 1 173 0 154 1 0 3 49 2 0 0 182 0 122 2 248 2 102 0 215 0 80 2 182 2 228 0 254 0 93 2 103 3 83 1 45 0 110 2 10 3 128 1 102 0 129 1 155 3 102 1 170 0 153 1 19 3 55 1 253 0 181 0 137 3 2 2 98 0 214 0 81 2 193 2 224 0 253 0 93 2 116 3 83 1 44 0 109 2 25 3 131 1 100 0 129 1 171 3 108 1 167 0 152 1 41 3 63 1 250 0 180 0 153 3 10 2 94 0 212 0 84 2 204 2 219 0 251 0 92 2 129 3 78 1 41 0 109 2 41 3 133 1 97 0 127 1 190 3 114 1 163 0 150 1 63 3 70 1 242 0 177 0 172 3 18 2 84 0 209 0 88 2 212 2 208 0 248 0 91 2 139 3 71 1 38 0 107 2 52 3 131 1 91 0 126 1 204 3 119 1 156 0 148 1 82 3 77 1 237 0 176 0 190 3 26 2 74 0 206 0 94 2 222 2 193 0 244 0 90 2 151 3 64 1 34 0 106 2 67 3 131 1 87 0 124 1 221 3 125 1 153 0 147 1 101 3 83 1 231 0 174 0 213 3 35 2 70 0 205 0 104 2 233 2 185 0 241 0 89 2 162 3 55 1 30 0 104 2 79 3 129 1 82 0 122 1 235 3 130 1 147 0 145 1 119 3 90 1 223 0 171 0 234 3 42 2 58 0 201 0 112 2 240 2 177 0 239 0 88 2 172 3 46 1 26 0 103 2 91 3 127 1 79 0 122 1 251 3 135 1 144 0 144 1 136 3 96 1 219 0 169 0 253 3 48 2 54 0 199 0 124 2 249 2 167 0 236 0 87 2 182 3 42 1 24 0 102 2 103 3 125 1 75 0 120 2 9 3 139 1 135 0 141 1 153 3 102 1 211 0 167 1 18 3 55 2 46 0 197 0 137 3 1 2 158 0 233 0 87 2 192 3 31 1 19 0 101 2 114 3 120 1 70 0 118 2 22 3 142 1 131 0 140 1 168 3 108 1 204 0 165 1 38 3 62 2 35 0 193 0 151 3 9 2 143 0 228 0 88 2 201 3 20 1 15 0 99 2 124 3 116 1 66 0 117 2 34 3 145 1 127 0 138 1 183 3 112 1 199 0 163 1 55 3 68 2 33 0 192 0 167 3 16 2 141 0 227 0 92 2 210 3 14 1 13 0 99 2 137 3 112 1 62 0 116 2 50 3 147 1 121 0 136 1 201 3 119 1 193 0 161 1 78 3 76 2 23 0 190 0 185 3 24 2 128 0 223 0 96 2 220 3 0 1 8 0 97 2 147 3 105 1 57 0 114 2 61 3 147 1 114 0 134 1 215 3 123 1 183 0 157 1 93 3 81 2 10 0 185 0 204 3 31 2 114 0 219 0 101 2 227 2 240 1 2 0 95 2 156 3 96 1 51 0 112 2 73 3 147 1 108 0 132 1 229 3 128 1 178 0 155 1 108 3 86 2 3 0 183 0 221 3 38 2 106 0 216 0 109 2 235 2 233 1 0 0 94 2 165 3 91 1 48 0 111 2 84 3 147 1 104 0 130 1 242 3 133 1 172 0 154 1 125 3 92 1 254 0 181 0 242 3 44 2 98 0 214 0 118 2 243 2 223 0 253 0 93 2 176 3 82 1 43 0 109 2 97 3 146 1 98 0 128 2 1 3 138 1 164 0 151 1 141 3 98 1 243 0 178 1 5 3 51 2 85 0 210 0 128 2 251 2 205 0 247 0 91 2 184 3 70 1 37 0 107 2 105 3 141 1 91 0 126 2 10 3 141 1 156 0 148 1 154 3 102 1 233 0 174 1 15 3 54 2 73 0 206 0 135 3 0 2 191 0 243 0 89 2 187 3 59 1 32 0 105 2 107 3 134 1 84 0 123 2 13 3 142 1 147 0 145 1 157 3 103 1 224 0 171 1 23 3 57 2 63 0 202 0 140 3 3 2 178 0 239 0 89 2 194 3 47 1 26 0 103 2 118 3 131 1 79 0 122 2 27 3 146 1 141 0 143 1 175 3 109 1 218 0 169 1 46 3 65 2 53 0 199 0 159 3 13 2 167 0 236 0 92 2 206 3 38 1 23 0 102 2 133 3 127 1 74 0 120 2 39 3 148 1 134 0 141 1 188 3 114 1 209 0 166 1 62 3 71 2 42 0 196 0 172 3 19 2 152 0 231 0 94 2 214 3 27 1 18 0 100 2 140 3 121 1 69 0 118 2 53 3 151 1 130 0 139 1 204 3 120 1 199 0 163 1 82 3 78 2 33 0 193 0 190 3 27 2 139 0 227 0 98 2 221 3 11 1 12 0 98 2 149 3 112 1 62 0 116 2 65 3 152 1 122 0 137 1 220 3 125 1 192 0 160 1 98 3 83 2 24 0 190 0 206 3 32 2 130 0 224 0 104 2 229 3 1 1 8 0 97 2 159 3 107 1 57 0 114 2 75 3 150 1 114 0 134 1 231 3 129 1 185 0 158 1 112 3 88 2 13 0 187 0 224 3 39 2 116 2 5 3 145 3 255 3 200 1 85 0 129 2 215 3 118 1 59 0 115 2 100 3 153 1 107 0 132 2 3 3 139 1 173 0 154 1 142 3 98 1 255 0 182 0 244 3 45 2 98 0 214 0 113 2 239 2 217 0 251 0 92 2 171 3 73 1 39 0 108 2 91 3 141 1 95 0 127 1 248 3 135 1 161 0 150 1 134 3 95 1 241 0 177 0 251 3 47 2 81 0 208 0 122 2 247 2 197 0 245 0 90 2 181 3 69 1 36 0 107 2 102 3 140 1 90 0 126 2 8 3 140 1 152 0 147 1 152 3 102 1 231 0 173 1 16 3 55 2 71 0 205 0 136 3 1 2 187 0 242 0 90 2 192 3 57 1 31 0 105 2 115 3 136 1 84 0 123 2 23 3 145 1 148 0 145 1 169 3 108 1 225 0 172 1 36 3 62 2 60 0 202 0 150 3 8 2 177 0 239 0 90 2 201 3 48 1 27 0 103 2 125 3 132 1 79 0 122 2 34 3 148 1 143 0 143 1 183 3 112 1 216 0 169 1 55 3 68 2 52 0 199 0 167 3 16 2 163 0 235 0 93 2 210 3 34 1 21 0 101 2 135 3 125 1 73 0 120 2 48 3 151 1 133 0 140 1 199 3 118 1 207 0 165 1 72 3 74 2 40 0 195 0 179 3 22 2 150 0 231 0 96 2 217 3 23 1 17 0 100 2 144 3 119 1 66 0 117 2 58 3 151 1 127 0 138 1 212 3 123 1 199 0 163 1 90 3 80 2 30 0 192 0 197 3 29 2 138 0 227 0 102 2 226 3 12 1 12 0 98 2 154 3 112 1 61 0 116 2 71 3 153 1 121 0 136 1 225 3 127 1 193 2 223 3 216 3 255 3 82 1 38 0 232 3 42 3 8 1 11 0 115 2 230 3 146 1 75 0 121 2 164 3 190 1 143 0 144 2 83 3 167 1 223 0 171 1 242 3 134 2 66 0 204 1 129 3 94 2 185 1 221 3 132 3 255 3 25 1 20 0 133 2 246 2 211 0 250 0 92 2 170 3 72 1 38 0 107 2 86 3 139 1 92 0 127 1 243 3 133 1 157 0 148 1 126 3 93 1 235 0 175 0 242 3 44 2 77 0 207 0 116 2 243 2 196 0 245 0 90 2 175 3 64 1 34 0 106 2 95 3 136 1 88 0 125 1 253 3 137 1 151 0 146 1 140 3 97 1 229 0 173 1 1 3 49 2 68 0 204 0 126 2 250 2 185 0 241 0 89 2 184 3 54 1 30 0 104 2 105 3 132 1 82 0 122 2 11 3 141 1 144 0 144 1 157 3 103 1 222 0 170 1 21 3 57 2 57 0 201 0 139 3 2 2 171 0 237 0 88 2 192 3 42 1 24 0 102 2 115 3 128 1 77 0 121 2 23 3 144 1 138 0 142 1 169 3 108 1 213 0 168 1 39 3 62 2 47 0 197 0 150 3 8 2 157 0 233 0 89 2 201 3 33 1 20 0 101 2 126 3 123 1 71 0 119 2 36 3 147 1 132 0 140 1 186 3 113 1 205 0 165 1 59 3 69 2 39 0 195 0 168 3 17 2 150 0 230 0 92 2 211 3 22 1 16 0 99 2 136 3 116 1 66 0 117 2 50 3 149 1 126 0 138 1 200 3 118 1 198 0 162 1 74 3 74 2 29 0 191 0 184 3 24 2 136 0 226 0 96 2 219 3 9 1 11 0 98 2 147 3 110 1 60 0 115 2 61 3 149 1 119 0 136 1 215 3 124 1 190 0 160 1 94 3 82 2 19 0 188 0 208 3 33 2 127 2 214 3 214 3 255 3 226 2 58 3 166 3 255 3 255 1 187 3 105 3 255 3 255 1 220 3 4 3 229 3 255 2 42 2 128 3 186 3 255 2 137 1 150 3 108 3 255 2 247 1 24 3 33 3 237 3 124 1 51 2 140 3 188 3 218 1 97 1 173 3 112 3 254 1 148 0 148 2 110 3 176 1 168 0 153 1 187 3 114 1 228 0 173 0 232 3 41 2 46 0 197 0 108 2 236 2 155 0 232 0 86 2 165 3 29 1 18 0 101 2 81 3 115 1 68 0 118 1 239 3 131 1 128 0 139 1 121 3 91 1 203 0 164 0 237 3 43 2 35 0 193 0 112 2 240 2 142 0 228 0 84 2 172 3 19 1 15 0 99 2 90 3 112 1 64 0 117 1 251 3 133 1 125 0 137 1 138 3 97 1 197 0 162 1 1 3 50 2 30 0 192 0 125 2 250 2 135 0 226 0 83 2 183 3 13 1 12 0 98 2 105 3 111 1 63 0 116 2 9 3 137 1 122 0 136 1 254 3 137 1 216 0 169 0 243 3 45 2 11 0 185 0 113 2 243 2 115 0 219 0 81 2 176 2 244 1 3 0 95 2 95 3 90 1 51 0 112 2 16 3 135 1 113 0 133 1 208 3 121 1 194 0 161 1 91 3 80 2 26 0 191 1 129 3 94 2 183 0 242 1 223 3 128 3 117 1 50 1 138 3 99 3 216 1 108 2 167 3 197 3 255 1 211 2 115 3 181 3 255 2 39 2 30 3 153 3 255 2 143 0 232 0 147 3 4 2 71 0 205 0 77 2 184 2 185 0 240 0 88 2 106 3 52 1 30 0 104 2 13 3 116 1 83 0 123 1 159 3 103 1 147 0 145 1 28 3 59 1 225 0 171 0 142 3 5 2 64 0 202 0 79 2 198 2 182 0 240 0 88 2 122 3 50 1 28 0 104 2 34 3 119 1 81 0 122 1 183 3 112 1 146 0 145 1 56 3 68 1 223 0 171 0 167 3 17 2 61 0 201 0 85 2 211 2 177 0 238 0 88 2 137 3 43 1 25 0 103 2 55 3 122 1 80 2 135 3 186 3 255 2 11 3 30 3 238 3 255 2 125 0 227 2 117 3 179 2 150 0 233 0 252 3 49 2 208 0 250 0 217 3 36 3 114 1 51 0 112 2 78 3 114 1 68 2 180 3 201 3 255 1 247 0 182 1 104 3 85 1 190 0 185 3 4 3 226 2 165 1 88 3 84 3 254 3 76 1 35 1 215 3 126 3 137 1 57 0 115 2 112 3 108 1 59 0 115 1 235 3 124 1 107 0 131 1 116 3 89 1 175 0 155 0 246 3 46 2 8 0 184 0 112 2 241 2 108 0 217 0 80 2 171 2 235 1 0 1 49 3 67 3 209 1 105 2 197 3 207 3 255 1 218 2 165 3 197 3 255 2 49 0 201 1 3 3 51 1 240 0 177 2 121 3 180 2 224 1 29 3 44 3 241 3 167 1 67 2 74 3 165 3 235 1 110 1 135 3 99 3 255 1 167 0 155 2 215 3 212 1 223 0 230 3 34 3 237 2 91 0 214 0 113 2 237 2 41 0 195 0 73 2 174 2 160 2 17 3 149 3 255 3 255 1 123 0 139 1 242 3 93 1 63 0 116 1 167 3 106 1 134 0 141 2 86 3 168 2 28 0 193 2 157 3 193 2 172 0 240 2 103 3 174 3 58 1 28 1 248 3 137 3 182 1 78 1 50 3 69 3 235 1 130 0 214 3 31 3 236 1 205 0 166 2 191 3 204 2 24 0 192 2 80 3 166 2 122 2 33 3 154 3 255 3 93 1 40 0 110 2 117 2 233 1 0 0 94 2 12 3 73 1 44 0 109 1 127 3 88 1 96 0 127 1 23 3 57 1 170 0 153 0 127 2 253 1 250 0 179 0 121 2 247 2 141 0 227 0 84 2 131 2 241 1 2 0 94 2 59 3 93 1 52 0 112 1 148 3 94 1 96 0 127 1 10 3 52 1 162 0 150 0 127 2 253 1 243 0 177 0 69 2 189 2 86 0 209 0 77 2 113 2 213 0 249 0 91 2 19 3 62 1 39 0 107 1 169 3 99 1 94 0 126 1 40 3 62 1 161 0 149 0 154 3 11 1 242 0 177 0 80 2 211 2 93 1 48 3 68 3 247 3 198 1 128 3 88 3 255 3 255 1 146 0 147 1 201 3 105 1 87 0 125 1 47 3 65 1 148 0 145 0 151 3 10 1 234 0 174 0 75 2 204 2 109 0 217 0 80 2 130 3 31 1 19 0 101 2 49 3 49 1 30 2 122 3 181 3 255 1 207 0 179 2 246 3 222 1 243 1 100 3 88 3 255 2 121 2 119 3 183 3 255 3 23 2 45 3 160 3 255 3 165 1 134 3 96 3 255 3 255 1 118 2 156 3 194 3 255 1 172 1 145 3 103 3 255 1 234 1 115 3 94 3 255 2 79 1 150 3 107 3 255 2 204 1 245 3 140 3 255 3 105 1 44 0 112 2 53 2 219 0 250 0 92 1 186 3 50 1 38 0 107 1 61 3 67 1 94 0 126 0 173 3 19 1 164 0 150 0 77 2 214 1 248 0 179 0 66 2 145 2 94 0 212 2 135 3 185 3 197 1 81 0 124 1 212 3 55 1 38 0 107 1 75 3 71 1 95 0 127 0 189 3 25 1 173 0 153 0 86 2 222 2 43 0 195 0 72 2 156 3 51 1 26 0 103 2 94 3 59 1 31 0 105 1 237 3 130 1 150 0 146 1 129 3 94 1 232 0 174 0 253 3 48 2 79 0 208 0 134 2 252 2 208 0 249 0 93 2 191 3 89 1 41 0 109 2 113 3 157 1 98 0 129 2 24 3 146 1 167 0 152 1 173 3 109 1 251 0 181 1 45 3 65 2 98 0 214 0 164 3 13 2 227 0 255 0 99 2 207 3 101 1 47 0 111 2 133 3 167 2 98 3 179 3 255 3 255 2 33 3 20 3 235 3 255 1 212 0 170 1 41 3 64 2 68 0 205 0 165 3 14 2 189 0 243 0 97 2 207 3 71 1 33 0 106 2 135 3 155 1 88 0 125 2 50 3 155 1 155 0 148 1 198 3 118 1 234 0 175 1 77 3 76 2 76 0 207 0 189 3 25 2 196 0 246 0 105 2 221 3 77 1 35 0 106 2 154 3 161 1 90 0 126 2 69 3 161 1 156 0 149 1 220 3 125 1 234 0 175 1 105 3 85 2 76 0 207 0 216 3 36 2 196 0 245 0 118 2 235 3 77 1 35 0 106 2 165 3 161 1 89 0 126 2 81 3 166 1 153 0 147 1 239 3 132 1 230 0 174 1 119 3 91 2 70 0 205 0 233 3 42 2 188 0 243 0 125 2 242 3 68 1 31 0 105 2 175 3 159 1 84 0 124 2 93 3 170 1 147 0 145 2 0 3 138 1 224 0 172 1 136 3 96 2 60 0 202 1 0 3 50 2 174 0 238 0 138 2 252 3 55 1 27 0 103 2 182 3 152 1 78 0 122 2 109 3 175 1 142 0 144 2 13 3 142 1 215 0 169 1 150 3 101 2 50 0 199 1 15 3 55 2 163 0 235 0 147 3 3 3 43 3 13 3 233 3 255 3 255 1 162 0 153 2 123 3 179 1 137 1 76 3 79 3 231 2 217 3 219 3 255 3 255 2 160 0 239 1 45 3 66 3 137 3 255 3 255 3 255 2 254 3 203 3 255 3 255 3 255 1 120 0 139 2 94 3 133 1 75 0 121 1 233 3 130 1 137 0 142 1 127 3 93 1 217 0 169 0 250 3 47 2 58 0 201 0 181 3 21 2 192 0 244 0 90 2 182 3 56 1 27 0 104 2 101 3 141 1 81 0 122 2 13 3 143 1 148 0 146 1 160 3 105 1 227 0 172 1 28 3 59 2 67 0 204 0 140 3 0 2 183 0 241 0 92 2 197 3 68 1 32 0 105 2 126 3 152 1 87 0 125 2 38 3 151 1 153 0 147 1 187 3 114 1 231 0 174 1 52 3 67 2 70 0 205 0 171 3 17 2 191 0 244 0 100 2 213 3 73 1 33 0 106 2 140 3 156 1 87 0 125 2 52 3 156 1 150 0 146 1 205 3 120 1 228 0 173 1 70 3 73 2 64 0 203 0 197 3 28 2 184 0 242 0 105 2 221 3 63 1 29 0 105 2 152 3 153 1 83 0 123 2 69 3 161 1 146 0 145 1 223 3 127 1 224 0 171 1 107 3 86 2 62 0 203 0 218 3 37 2 176 0 239 0 113 2 231 3 56 1 26 0 104 2 163 3 150 1 78 0 122 2 81 3 165 1 142 0 144 1 240 3 132 1 218 0 170 1 126 3 93 2 55 0 200 0 243 3 45 2 167 0 237 0 128 2 245 3 48 1 24 0 103 2 175 3 146 1 74 0 120 2 92 3 169 1 136 0 142 1 250 3 136 1 210 0 167 1 140 3 97 2 45 0 197 1 2 3 50 2 156 0 233 0 132 2 249 3 34 1 19 0 101 2 184 3 140 1 69 0 119 2 104 3 171 1 130 0 140 2 4 3 139 1 201 0 164 1 160 3 104 2 35 0 194 1 20 3 56 2 143 0 229 0 150 3 5 3 22 1 15 0 100 2 190 3 132 1 63 0 117 2 109 3 170 1 122 0 137 2 26 3 147 1 196 0 162 1 169 3 108 2 26 0 191 1 41 3 64 2 132 0 226 0 158 3 9 3 9 1 10 0 100 2 198 3 125 1 58 0 115 2 129 3 175 1 118 0 136 2 42 3 152 1 189 0 160 1 176 3 110 2 14 0 187 1 60 3 70 2 120 0 222 0 174 3 18 2 249 1 5 0 107 2 217 3 120 1 55 0 113 2 142 3 174 1 111 0 133 2 49 3 154 1 178 0 156 1 206 3 120 2 6 0 185 1 84 3 78 2 108 0 218 0 190 3 25 2 232 1 0 0 111 2 224 3 108 1 48 0 111 2 141 3 168 1 102 0 130 2 62 3 159 1 171 0 154 1 223 3 126 1 253 0 181 1 103 3 85 2 96 0 214 0 208 3 33 2 218 0 252 0 115 2 231 3 95 1 42 0 109 2 159 3 168 1 97 0 128 2 77 3 164 1 164 0 151 1 224 3 127 1 241 0 177 1 117 3 90 2 85 0 211 0 233 3 42 2 206 0 249 0 124 2 240 3 84 1 38 0 107 2 174 3 167 1 92 0 127 2 91 3 170 1 156 0 149 1 248 3 135 1 233 0 175 1 127 3 93 2 70 0 206 0 239 3 44 2 185 0 242 0 135 2 250 3 71 1 32 0 105 2 179 3 158 1 83 0 123 2 103 3 173 1 148 0 146 2 12 3 142 1 226 0 172 1 155 3 103 2 62 1 62 3 74 3 250 3 32 1 21 2 97 3 173 3 141 1 57 0 116 2 200 3 138 1 67 0 118 2 117 3 172 1 122 0 195 3 20 3 232 1 242 2 229 3 219 3 255 2 126 1 10 3 41 3 240 2 112 0 222 2 108 3 176 2 221 1 0 1 116 3 91 3 94 1 40 1 36 3 64 3 135 3 45 3 244 3 255 3 255 2 229 3 223 3 255 3 255 2 100 3 181 3 255 3 255 2 71 3 129 3 255 3 255 2 160 3 41 3 243 3 255 3 29 2 176 3 204 3 255 3 172 2 43 3 161 3 255 3 255 1 136 3 67 3 250 3 255 1 183 2 171 3 200 3 255 1 253 1 246 3 139 3 255 2 85 1 21 3 51 3 244 2 173 0 241 0 90 2 81 2 84 0 208 0 77 1 209 2 194 0 242 0 88 1 77 3 23 1 29 0 104 0 191 3 25 1 85 0 123 0 80 2 221 1 151 0 145 0 55 2 151 1 233 0 173 0 64 2 82 2 85 0 208 0 76 1 211 2 191 0 240 0 88 1 93 3 27 1 32 0 104 0 206 3 30 1 87 0 124 0 92 2 231 1 159 0 148 0 56 2 164 2 8 0 183 0 68 2 84 2 182 0 239 0 87 1 253 3 115 1 79 0 121 1 159 3 103 1 157 0 148 1 34 3 61 1 245 0 178 0 152 3 8 2 93 0 213 0 86 2 202 2 224 0 253 0 93 2 130 3 95 1 46 0 110 2 46 3 145 1 104 0 131 1 198 3 117 1 175 0 155 1 68 3 72 2 3 0 183 0 191 3 26 2 111 0 218 0 101 2 223 2 244 1 4 0 95 2 151 3 110 1 53 0 113 2 69 3 155 1 112 0 134 1 227 3 128 1 183 0 158 1 113 3 88 2 15 0 187 0 225 3 39 2 120 0 221 0 116 2 238 2 250 1 6 0 96 2 169 3 110 1 52 0 112 2 91 3 160 1 109 0 132 1 252 3 137 1 178 0 156 1 143 3 99 1 254 0 181 2 48 3 155 2 152 0 233 2 132 3 184 3 76 1 34 1 239 3 134 3 182 1 140 3 96 3 255 3 255 1 177 0 158 2 11 3 142 1 153 0 148 1 130 3 94 1 230 0 174 0 252 3 48 2 74 0 206 0 128 2 248 2 194 0 244 0 90 2 183 3 77 1 35 0 107 2 103 3 150 1 90 0 126 2 11 3 142 1 157 0 149 1 161 3 105 1 238 0 176 1 26 3 59 2 79 0 208 0 151 3 6 2 202 0 247 0 94 2 198 3 82 1 37 0 107 2 123 3 156 1 92 0 126 2 29 3 148 1 158 0 149 1 181 3 112 1 237 0 176 1 54 3 68 2 77 0 208 0 168 3 15 2 201 0 247 0 99 2 210 3 78 1 35 0 107 2 136 3 156 1 88 0 125 2 47 3 154 1 153 0 148 1 194 3 116 1 230 0 174 1 77 3 76 2 72 0 206 0 187 3 24 2 190 0 244 0 107 2 223 3 72 1 33 0 106 2 147 3 155 1 85 0 124 2 67 3 161 1 150 0 147 1 215 3 124 1 226 0 172 1 94 3 82 2 64 0 204 0 217 3 36 2 181 0 241 0 113 2 231 3 62 1 29 0 104 2 161 3 153 1 81 0 123 2 81 3 166 1 144 0 144 1 235 3 131 1 217 0 169 1 120 3 91 2 54 0 200 0 227 3 40 2 166 0 236 0 123 2 241 3 48 1 24 0 103 2 173 3 148 1 76 0 121 2 91 3 169 1 138 0 142 2 0 3 138 1 214 0 168 1 136 3 96 2 47 0 198 0 241 3 45 2 156 0 233 0 133 2 250 3 39 1 20 0 101 2 185 3 144 1 71 0 119 2 107 3 173 1 132 0 140 2 11 3 142 1 204 0 165 1 153 3 102 2 36 0 194 1 11 3 54 2 143 0 229 0 143 3 1 3 23 1 15 0 101 2 197 3 136 1 66 0 117 2 118 3 174 1 124 0 137 2 30 3 148 1 196 0 162 1 178 3 111 2 24 0 190 1 46 3 66 2 130 0 225 0 158 3 9 3 3 1 9 0 102 2 205 3 125 1 59 0 115 2 129 3 173 1 116 0 135 2 39 3 151 1 185 0 158 1 183 3 113 2 13 0 186 1 59 3 70 2 118 0 221 0 180 3 21 2 247 1 5 0 106 2 216 3 117 1 53 0 113 2 140 3 173 1 110 0 133 2 56 3 157 1 179 0 157 1 205 3 120 2 7 0 185 1 79 3 77 2 106 0 217 0 191 3 27 2 231 1 0 0 105 2 216 3 102 1 46 0 110 2 147 3 170 1 103 0 130 2 63 3 160 1 170 0 153 1 220 3 126 1 251 0 181 1 95 3 82 2 92 0 213 0 200 3 30 2 213 0 251 0 112 2 228 3 91 1 41 0 109 2 161 3 168 1 96 0 128 2 80 3 166 1 162 0 151 1 234 3 130 1 240 0 177 1 115 3 90 2 81 0 209 0 234 3 43 2 203 0 248 0 123 2 239 3 80 1 36 0 107 2 174 3 165 1 91 0 126 2 94 3 171 1 155 0 148 1 255 3 138 1 233 0 175 1 138 3 97 2 72 0 206 1 2 3 51 2 188 0 243 0 135 2 250 3 67 1 31 0 105 2 183 3 193 3 255 3 255 3 255 3 255 3 211 3 255 3 255 3 255 3 140 3 255 3 255 3 255 3 3 3 235 3 255 3 255 2 143 3 180 3 255 3 255 2 201 3 39 3 243 3 255 3 69 2 101 3 179 3 255 3 205 1 147 3 100 3 255 3 255 1 134 3 18 3 233 3 255 1 201 3 16 3 234 3 255 2 33 3 68 3 251 3 255 2 137 0 231 0 87 2 138 2 4 0 182 0 68 2 33 2 101 0 213 0 78 1 184 2 223 0 252 0 92 1 60 3 38 1 45 0 109 0 170 3 17 1 103 0 129 0 73 2 213 1 172 0 153 0 57 2 142 2 3 0 182 0 67 2 59 2 110 0 216 0 79 1 215 2 238 1 1 0 94 1 99 3 51 1 51 0 111 0 213 3 34 1 110 0 132 0 95 2 233 1 179 0 155 0 58 2 166 2 11 0 184 0 68 2 87 2 123 2 4 3 143 3 255 3 255 1 123 0 139 1 158 3 71 1 57 0 114 0 248 3 45 1 109 0 131 0 114 2 245 1 181 0 156 0 60 2 180 2 12 0 185 0 68 2 103 2 117 0 219 0 80 2 11 2 244 1 3 0 95 1 158 3 66 1 53 0 112 1 29 3 58 1 112 0 132 0 142 3 5 1 183 0 157 0 67 2 198 2 13 0 185 0 69 2 124 2 122 0 220 0 81 2 35 2 247 1 4 0 95 1 187 3 73 1 55 0 113 1 64 3 70 1 114 0 133 0 173 3 19 1 185 0 157 0 78 2 213 2 16 0 186 0 69 2 143 2 124 0 221 0 82 2 58 2 253 1 7 0 96 1 212 3 79 1 56 0 113 1 92 3 80 1 114 0 133 0 206 3 31 1 187 0 158 0 93 2 228 2 17 0 187 0 69 2 160 2 127 0 222 0 82 2 80 3 1 1 8 0 96 1 237 3 85 1 57 0 114 1 122 3 91 1 117 0 135 0 242 3 44 1 188 0 159 0 113 2 244 2 17 0 187 0 70 2 178 2 127 0 222 0 82 2 100 2 255 1 7 0 96 2 4 3 85 1 55 0 113 1 150 3 99 1 114 0 133 1 16 3 54 1 184 0 157 0 133 3 0 2 16 0 187 0 72 2 191 2 123 0 221 0 81 2 117 3 15 1 13 0 98 2 13 3 82 1 52 0 112 1 167 3 104 1 114 0 134 1 41 3 63 1 181 0 156 0 153 3 10 2 11 0 185 0 77 2 204 2 116 0 219 0 81 2 130 2 246 1 4 0 95 2 42 3 87 1 53 0 112 1 194 3 112 1 111 0 132 1 69 3 72 1 182 0 157 0 178 3 21 2 8 0 184 0 85 2 217 2 114 0 218 0 81 2 145 2 243 1 3 0 95 2 61 3 85 1 50 0 111 1 214 3 117 1 108 0 131 1 93 3 81 1 178 0 155 0 204 3 31 2 7 0 184 0 97 2 229 2 110 0 217 0 80 2 159 2 238 1 1 0 94 2 77 3 85 1 49 0 111 1 234 3 122 1 106 0 131 1 120 3 90 1 175 0 154 0 233 3 41 2 2 0 182 0 111 2 241 2 105 0 216 0 79 2 173 2 231 0 255 0 93 2 93 3 83 1 47 0 110 1 254 3 126 1 102 0 130 1 142 3 98 1 169 0 152 1 5 3 51 1 252 0 180 0 126 2 252 2 99 0 214 0 79 2 185 2 222 0 252 0 92 2 108 3 78 1 43 0 109 2 15 3 127 1 98 0 128 1 161 3 105 1 165 0 151 1 29 3 59 1 245 0 178 0 142 3 5 2 89 0 210 0 81 2 197 2 211 0 249 0 91 2 121 3 71 1 39 0 108 2 31 3 129 1 95 0 127 1 181 3 112 1 162 0 150 1 52 3 67 1 242 0 177 0 161 3 14 2 84 0 209 0 85 2 208 2 206 0 247 0 91 2 136 3 70 1 38 0 107 2 48 3 129 1 91 0 125 1 199 3 118 1 156 0 148 1 75 3 75 1 235 0 175 0 184 3 24 2 76 0 206 0 93 2 220 2 192 0 243 0 89 2 148 3 60 1 33 0 105 2 62 3 129 1 85 0 124 1 217 3 124 1 149 0 146 1 96 3 82 1 227 0 172 0 204 3 32 2 66 0 203 0 99 2 229 2 181 0 240 0 88 2 167 3 146 1 81 0 123 2 104 3 139 1 155 3 104 3 255 3 255 2 27 0 194 1 118 3 91 1 240 0 177 0 197 3 30 2 151 0 231 0 114 2 237 2 158 0 232 0 85 2 173 3 37 1 22 0 102 2 88 3 118 1 72 0 119 1 245 3 132 1 133 0 140 1 130 3 94 1 206 0 165 0 246 3 46 2 40 0 195 0 118 2 245 2 150 0 230 0 85 2 178 3 23 1 17 0 100 2 99 3 113 1 67 0 117 2 5 3 136 1 126 0 138 1 152 3 102 2 65 0 204 1 8 3 53 2 242 1 4 0 150 3 4 3 125 1 58 0 115 2 199 3 189 1 120 0 136 2 123 3 180 1 193 0 161 2 33 3 150 2 24 0 191 1 184 3 113 2 134 0 226 1 57 3 70 3 12 1 12 0 178 3 20 3 134 1 62 0 120 2 213 3 195 1 121 0 137 2 141 3 187 1 194 0 162 2 49 3 155 2 23 0 190 1 210 3 123 2 132 0 226 1 83 3 79 3 6 1 10 0 198 3 29 3 129 1 59 0 123 2 221 3 194 1 117 0 135 2 156 3 192 1 189 0 160 2 71 3 163 2 16 0 188 1 225 3 128 2 119 0 222 1 101 3 85 2 247 1 6 0 219 3 38 3 120 1 54 0 129 2 234 3 192 1 110 0 133 2 161 3 194 1 177 0 156 2 78 3 165 2 2 0 183 1 225 3 128 2 99 0 215 1 116 3 90 2 225 0 255 0 239 3 45 3 104 1 46 0 135 2 242 3 186 1 101 0 130 2 173 3 197 1 168 0 153 2 91 3 169 1 245 0 179 1 247 3 135 2 83 0 210 1 127 3 94 2 201 0 247 0 249 3 48 3 83 1 37 0 137 2 246 3 174 1 90 0 126 2 177 3 198 1 153 0 148 2 97 3 171 1 229 0 174 1 253 3 137 2 66 0 205 1 145 3 100 2 182 0 242 1 7 3 53 3 61 1 28 0 136 2 246 3 161 1 79 0 122 2 185 3 198 1 142 0 144 2 108 3 175 1 217 0 169 2 9 3 141 2 50 0 199 1 159 3 105 2 160 0 235 1 11 3 54 3 37 1 20 0 153 3 3 3 149 1 70 0 119 2 192 3 196 1 129 0 140 2 118 3 179 1 201 0 164 2 26 3 147 2 30 0 193 1 172 3 110 2 137 0 227 1 42 3 65 3 14 1 13 0 162 3 10 3 133 1 61 0 116 2 201 3 192 1 118 0 136 2 127 3 182 1 188 0 160 2 35 3 150 2 15 0 188 1 180 3 112 2 120 0 222 1 56 3 69 2 246 1 6 0 175 3 18 3 119 1 53 0 116 2 209 3 187 1 108 0 133 2 131 3 183 1 175 0 155 2 43 3 153 2 0 0 183 1 190 3 115 2 98 0 215 1 44 3 65 2 216 0 252 0 181 3 20 3 99 1 44 0 116 2 216 3 180 1 99 0 129 2 142 3 187 1 164 0 151 2 47 3 154 1 243 0 178 1 208 3 122 2 83 0 210 1 83 3 79 2 201 0 247 0 193 3 27 3 77 1 35 0 114 2 216 3 167 1 87 0 125 2 150 3 189 1 152 0 147 2 57 3 158 1 226 0 173 1 219 3 126 2 65 0 204 1 85 3 79 2 177 0 240 0 204 3 31 3 58 1 27 0 123 2 232 3 163 1 80 0 123 2 162 3 192 1 142 0 144 2 77 3 164 1 217 0 169 1 233 3 131 2 52 0 200 1 118 3 91 2 163 0 236 0 227 3 40 3 43 1 22 0 127 2 238 3 149 1 71 0 120 2 169 3 190 1 131 0 140 2 83 3 167 1 203 0 165 1 239 3 132 2 35 0 194 1 128 3 94 2 142 0 229 0 247 3 47 3 21 1 15 0 133 2 245 3 138 1 64 0 117 2 174 3 188 1 123 0 137 2 97 3 172 1 193 0 162 1 253 3 137 2 21 0 190 1 144 3 99 2 125 0 223 1 5 3 52 2 255 1 8 0 140 2 252 3 122 1 55 0 114 2 184 3 184 1 111 0 133 2 108 3 175 1 181 0 157 2 12 3 142 2 7 0 185 1 148 3 101 2 107 0 217 1 6 3 52 2 229 1 0 0 149 3 3 3 108 1 48 0 111 2 193 3 181 1 104 0 131 2 118 3 179 1 172 0 154 2 27 3 148 1 252 0 181 1 172 3 109 2 94 0 213 1 42 3 64 2 215 0 252 0 152 3 5 3 91 1 40 0 110 2 200 3 175 1 96 0 128 2 123 3 180 1 160 0 150 2 36 3 151 1 239 0 177 1 184 3 113 2 79 0 208 1 57 3 70 2 196 0 246 0 170 3 15 3 76 1 34 0 109 2 203 3 164 1 86 0 124 2 136 3 185 1 151 0 147 2 48 3 154 1 228 0 173 1 187 3 115 2 63 0 203 1 71 3 74 2 180 0 241 0 179 3 20 3 59 1 28 0 114 2 219 3 160 1 81 0 123 2 144 3 186 1 141 0 144 2 57 3 158 1 216 0 169 1 210 3 122 2 50 0 199 1 87 3 79 2 161 0 235 0 201 3 30 3 41 1 22 0 117 2 227 3 149 1 71 0 119 2 154 3 187 1 132 0 141 2 72 3 163 1 205 0 165 1 223 3 127 2 35 0 194 1 109 3 87 2 144 0 230 0 218 3 37 3 23 1 15 0 118 2 229 3 135 1 63 0 116 2 163 3 185 1 122 0 137 2 80 3 166 1 191 0 161 1 235 3 131 2 22 0 190 1 115 3 90 2 125 0 223 0 235 3 43 3 7 1 10 0 128 2 241 3 124 1 56 0 114 2 171 3 183 1 114 0 134 2 89 3 169 2 252 3 229 3 255 3 255 2 153 0 236 1 142 3 99 2 90 0 213 0 226 3 40 2 208 0 249 0 122 2 238 3 88 1 40 0 108 2 173 3 169 1 95 0 127 2 89 3 169 1 160 0 150 1 251 3 136 1 238 0 177 1 135 3 96 2 79 0 209 1 4 3 51 2 200 0 247 0 138 2 252 3 82 1 37 0 107 2 183 3 165 1 89 0 126 2 104 3 174 1 155 0 148 2 9 3 141 1 231 0 174 1 155 3 103 2 71 0 206 1 24 3 58 2 188 0 243 0 149 3 4 3 69 1 31 0 106 2 196 3 163 1 85 0 124 2 114 3 13 3 84 3 254 3 255 3 255 2 239 3 227 3 255 3 255 2 184 0 247 1 27 3 60 2 129 0 224 0 140 2 255 3 6 1 10 0 98 2 187 3 124 1 59 0 115 2 109 3 169 1 119 0 136 2 23 3 145 1 192 0 161 1 165 3 106 2 21 0 190 1 39 3 63 2 130 0 224 0 154 3 8 3 3 1 9 0 100 2 201 3 123 1 58 0 114 2 125 3 172 1 116 0 135 2 37 3 151 1 187 0 159 1 183 3 113 2 14 0 187 1 63 3 71 2 121 0 222 0 178 3 20 2 250 1 6 0 106 2 216 3 119 1 55 0 113 2 140 3 174 1 112 0 133 2 52 3 156 1 179 0 156 1 210 3 122 2 6 0 185 1 76 3 76 2 108 0 218 0 192 3 27 2 234 1 1 0 111 2 225 3 108 1 48 0 111 2 153 3 173 1 104 0 131 2 67 3 160 1 171 0 154 1 224 3 127 1 251 0 181 1 103 3 85 2 95 0 214 0 207 3 32 2 215 0 251 0 118 2 235 3 95 1 42 0 109 2 164 3 169 1 97 0 128 2 82 3 166 1 162 0 151 1 241 3 133 1 242 0 178 1 127 3 93 2 82 0 209 0 244 3 46 2 202 0 247 0 124 2 241 3 80 1 36 0 107 2 177 3 167 1 91 0 126 2 91 3 169 1 154 0 148 2 1 3 138 1 234 0 175 1 137 3 97 2 72 0 206 0 252 3 48 2 188 0 243 0 141 2 255 3 71 1 32 0 106 2 189 3 162 1 85 0 124 2 108 3 175 1 147 0 146 2 16 3 143 1 223 0 172 1 148 3 101 2 57 0 201 1 25 3 59 2 175 0 239 0 149 3 4 3 54 1 26 0 104 2 192 3 153 1 77 0 121 2 120 3 178 1 140 0 143 2 23 3 146 1 212 0 168 1 172 3 109 2 48 0 198 1 42 3 65 2 160 0 235 2 154 3 192 3 255 3 255 3 255 3 255 3 245 3 126 3 255 3 255 3 236 1 96 1 163 3 109 3 225 1 108 0 133 1 160 3 93 1 83 0 123 0 239 3 43 2 83 0 209 0 146 3 4 2 215 0 251 1 244 3 135 2 189 0 244 0 90 2 107 3 152 1 92 0 189 3 18 3 175 1 82 0 123 1 160 3 104 1 237 0 176 1 48 3 65 2 79 0 208 0 163 3 13 2 206 0 248 0 98 2 208 3 87 1 40 0 108 2 135 3 161 1 95 0 128 2 49 3 155 1 162 0 151 1 200 3 119 1 243 0 178 1 77 3 76 2 85 0 210 0 183 3 23 2 208 0 249 0 106 2 220 3 89 1 40 0 108 2 151 3 165 1 95 0 128 2 67 3 161 1 163 0 151 1 223 3 126 1 243 0 178 1 100 3 84 2 86 0 210 0 210 3 34 2 206 0 249 0 118 2 234 3 88 1 39 0 108 2 163 3 167 1 94 0 127 2 81 3 165 1 159 0 150 1 234 3 130 1 237 0 176 1 119 3 91 2 77 0 208 0 231 3 42 2 197 0 246 0 124 2 240 3 78 1 35 0 106 2 171 3 164 1 90 0 126 2 91 3 169 1 153 0 147 1 255 3 138 1 231 0 174 1 132 3 95 2 70 0 206 0 251 3 48 2 185 0 242 0 134 2 249 3 68 1 31 0 105 2 185 3 160 1 84 0 124 2 106 3 174 1 147 0 145 2 11 3 142 1 223 0 171 1 153 3 102 2 58 0 201 1 18 3 56 2 172 0 238 0 143 3 1 3 52 1 25 0 104 2 195 3 154 1 78 0 122 2 115 3 177 1 138 0 143 2 26 3 147 1 213 0 168 1 172 3 109 2 46 0 198 1 37 3 63 2 155 0 233 0 154 3 7 3 31 1 18 0 104 2 204 3 144 1 70 0 119 2 126 3 178 3 83 3 255 3 255 3 255 2 63 0 206 1 191 3 116 2 23 0 190 1 36 3 62 2 126 0 223 0 161 3 11 3 4 1 9 0 102 2 204 3 125 1 58 0 115 2 123 3 172 1 115 0 135 2 39 3 151 1 187 0 159 1 187 3 114 2 16 0 187 1 55 3 69 2 121 0 222 0 179 3 20 2 249 1 6 0 104 2 211 3 118 1 54 0 113 2 140 3 175 1 113 0 134 2 52 3 156 1 181 0 157 1 211 3 122 2 10 0 186 1 77 3 76 2 112 0 219 0 195 3 28 2 240 1 3 0 111 2 224 3 112 1 50 0 112 2 151 3 174 1 106 0 131 2 68 3 161 1 174 0 155 1 225 3 128 2 0 0 182 1 102 3 85 2 101 0 215 0 214 3 35 2 224 0 254 0 116 2 231 3 102 1 46 0 110 2 167 3 175 1 102 0 130 2 75 3 164 1 167 0 152 1 239 3 132 1 249 0 180 1 124 3 92 2 90 0 212 0 238 3 44 2 211 0 250 0 128 2 243 3 91 1 40 0 108 2 175 3 170 1 95 0 127 2 95 3 171 1 160 0 150 1 246 3 135 1 236 0 176 1 129 3 94 2 75 0 207 1 3 3 51 2 196 0 246 0 136 2 250 3 78 1 35 0 106 2 187 3 166 1 88 0 125 2 102 3 173 1 151 0 147 2 12 3 142 1 228 0 173 1 161 3 105 2 66 0 204 1 23 3 58 2 179 0 240 0 148 3 3 3 59 1 28 0 104 2 191 3 155 1 79 0 122 2 117 3 178 1 142 0 144 2 25 3 147 1 219 0 170 1 172 3 109 2 53 0 200 1 41 3 64 2 164 0 235 0 161 3 11 3 47 1 23 0 106 2 203 3 151 1 75 0 120 2 130 3 181 1 135 0 141 2 38 3 151 1 208 0 166 1 188 3 114 2 41 0 196 1 61 3 71 2 149 0 231 0 185 3 23 3 27 1 16 0 111 2 218 3 138 1 65 0 117 2 140 3 180 1 122 0 137 2 48 3 154 1 191 0 160 1 195 3 117 2 21 0 189 1 70 3 74 2 128 0 224 0 180 3 21 3 3 1 9 0 110 2 220 3 127 1 58 0 115 2 150 3 180 1 117 0 135 2 57 3 158 1 185 0 158 1 210 3 122 2 13 0 187 1 90 3 80 2 116 0 221 0 206 3 32 2 246 1 5 0 116 2 230 3 115 1 52 0 112 2 159 3 177 1 109 0 132 2 77 3 165 1 176 0 155 1 229 3 129 2 0 0 182 1 106 3 87 2 100 0 215 0 222 3 38 2 227 0 255 0 121 2 236 3 103 1 46 0 110 2 168 3 174 1 101 0 130 2 84 3 167 1 169 0 153 1 245 3 134 1 250 0 181 1 129 3 94 2 93 0 213 0 238 3 44 2 212 0 251 0 134 2 249 3 94 1 41 0 109 2 175 3 170 1 95 0 128 2 100 3 172 1 161 0 151 2 4 3 140 1 240 0 177 1 150 3 101 2 82 0 209 1 18 3 56 2 201 0 247 0 146 3 1 3 82 1 36 0 107 2 191 3 168 1 89 0 126 2 114 3 177 1 153 0 147 2 9 3 141 1 227 0 173 1 163 3 106 2 67 0 205 1 34 3 62 2 183 0 242 0 152 3 5 3 62 1 29 0 106 2 199 3 160 1 82 0 123 2 121 3 180 1 142 0 144 2 34 3 150 1 219 0 170 1 184 3 113 2 54 0 200 1 54 3 68 2 166 0 236 0 168 3 14 3 47 1 23 0 108 2 210 3 152 1 74 0 120 2 134 3 182 1 136 0 142 2 46 3 154 1 209 0 167 1 195 3 117 2 42 0 196 1 72 3 75 2 153 0 232 0 186 3 23 3 33 1 18 0 111 2 218 3 143 1 68 0 118 2 146 3 184 1 128 0 139 2 60 3 158 1 200 0 163 1 211 3 122 2 29 0 192 1 92 3 81 2 136 0 227 0 209 3 33 3 14 1 12 0 115 2 227 3 131 1 60 0 115 2 157 3 183 1 119 0 136 2 75 3 163 1 190 0 160 1 222 3 126 2 16 0 188 1 112 3 88 2 122 0 222 0 224 3 39 2 249 1 6 0 120 2 233 3 118 1 53 0 113 2 166 3 180 1 110 0 133 2 83 3 167 1 178 0 156 1 229 3 129 2 1 0 183 1 122 3 92 2 107 0 218 0 241 3 45 2 231 1 0 0 128 2 243 3 106 1 47 0 111 2 178 3 179 1 104 0 131 2 88 3 168 1 170 0 153 2 0 3 138 1 252 0 181 1 138 3 97 2 94 0 213 1 1 3 50 2 215 0 251 0 136 2 250 3 94 1 41 0 109 2 188 3 175 1 97 0 128 2 105 3 174 1 161 0 150 2 11 3 142 1 240 0 177 1 156 3 103 2 80 0 209 1 21 3 57 2 201 0 247 0 151 3 4 3 79 1 35 0 107 2 195 3 168 1 88 0 125 2 116 3 178 1 153 0 147 2 21 3 145 1 229 0 173 1 172 3 109 2 67 0 204 1 34 3 62 2 180 0 241 0 162 3 12 3 60 1 28 0 106 2 200 3 160 1 81 0 123 2 124 3 180 1 143 0 144 2 38 3 152 1 219 0 170 1 182 3 112 2 52 0 200 1 60 3 70 2 167 0 237 0 171 3 16 3 47 1 23 0 106 2 205 3 150 1 74 0 120 2 134 3 182 1 136 0 142 2 47 3 154 1 210 0 167 1 196 3 118 2 43 0 197 1 76 3 76 2 155 0 233 0 187 3 24 3 32 1 18 0 111 2 218 3 144 1 68 0 118 2 145 3 184 1 128 0 139 2 58 3 159 1 200 0 164 1 216 3 124 2 33 0 193 1 85 3 79 2 138 0 227 0 206 3 32 3 18 1 13 0 115 2 226 3 134 1 62 0 116 2 151 3 182 1 121 0 136 2 69 3 161 1 192 0 161 1 228 3 128 2 22 0 190 1 106 3 86 2 126 0 224 0 218 3 37 2 254 1 7 0 118 2 231 3 122 1 55 0 114 2 165 3 182 1 113 0 134 2 83 3 166 1 182 0 158 1 238 3 132 2 9 0 185 1 121 3 92 2 112 0 219 0 240 3 45 2 239 1 3 0 126 2 241 3 112 1 50 0 112 2 171 3 179 1 106 0 132 2 93 3 170 1 176 0 156 1 246 3 135 1 255 0 182 1 131 3 95 2 101 0 216 0 247 3 47 2 220 0 253 0 137 2 250 3 98 1 43 0 109 2 183 3 174 1 98 0 128 2 109 3 175 1 164 0 152 2 13 3 143 1 242 0 178 1 153 3 103 2 82 0 209 1 16 3 56 2 203 0 248 0 147 3 2 3 83 1 37 0 108 2 195 3 169 1 90 0 126 2 117 3 178 1 155 0 148 2 24 3 146 1 231 0 174 1 171 3 109 2 70 0 205 1 35 3 62 2 185 0 242 0 159 3 9 3 67 1 30 0 107 2 199 3 160 1 82 0 123 2 124 3 180 1 145 0 145 2 36 3 150 1 221 0 171 1 185 3 114 2 58 0 201 1 58 3 70 2 172 0 238 0 172 3 16 3 53 1 25 0 109 2 210 3 156 1 77 0 122 2 135 3 184 1 138 0 143 2 44 3 153 1 212 0 168 1 197 3 118 2 46 0 198 1 69 3 74 2 156 0 233 0 189 3 25 3 38 1 20 0 111 2 219 3 146 1 70 0 119 2 143 3 183 1 129 0 140 2 60 3 158 1 202 0 164 1 217 3 125 2 35 0 194 1 88 3 80 2 140 0 228 0 201 3 30 3 18 1 14 0 112 2 222 3 133 1 62 0 116 2 154 3 184 1 123 0 137 2 73 3 163 1 193 0 161 1 223 3 127 2 22 0 190 1 102 3 85 2 126 0 223 0 218 3 37 3 1 1 8 0 121 2 235 3 124 1 56 0 114 2 163 3 181 1 113 0 134 2 81 3 166 1 183 0 157 1 237 3 131 2 10 0 186 1 119 3 91 2 112 0 219 0 231 3 41 2 239 1 3 0 126 2 240 3 113 1 50 0 112 2 171 3 180 1 108 0 132 2 91 3 169 1 176 0 155 1 246 3 135 2 1 0 182 1 135 3 96 2 102 0 216 0 251 3 48 2 226 0 255 0 137 2 250 3 104 1 46 0 110 2 182 3 177 1 101 0 130 2 104 3 174 1 167 0 152 2 9 3 141 1 247 0 179 1 148 3 101 2 87 0 211 1 16 3 56 2 207 0 249 0 147 3 1 3 89 1 39 0 108 2 192 3 172 1 93 0 127 2 112 3 176 1 157 0 149 2 17 3 144 1 234 0 175 1 166 3 107 2 73 0 207 1 36 3 62 2 190 0 244 0 156 3 8 3 70 1 32 0 107 2 200 3 164 1 85 0 124 2 124 3 180 1 148 0 146 2 35 3 150 1 224 0 172 1 178 3 111 2 61 0 202 1 47 3 66 2 176 0 239 0 166 3 13 3 57 1 27 0 110 2 211 3 160 1 79 0 122 2 134 3 183 1 142 0 144 2 44 3 153 1 216 0 169 1 192 3 116 2 50 0 199 1 65 3 72 2 162 0 235 0 183 3 22 3 43 1 22 0 110 2 215 3 150 1 72 0 120 2 144 3 184 1 133 0 141 2 55 3 157 1 206 0 165 1 214 3 124 2 39 0 195 1 76 3 76 2 145 0 230 0 197 3 28 3 24 1 16 0 116 2 226 3 140 1 66 0 117 2 154 3 184 1 124 0 137 2 67 3 161 1 195 0 162 1 222 3 127 2 26 0 191 1 97 3 83 2 130 0 225 0 220 3 38 3 8 1 11 0 115 2 227 3 125 1 57 0 114 2 159 3 182 1 116 0 135 2 81 3 166 1 186 0 159 1 229 3 129 2 12 0 186 1 120 3 91 2 118 0 221 0 228 3 41 2 243 1 4 0 122 2 236 3 115 1 52 0 112 2 172 3 182 1 110 0 133 2 88 3 168 1 178 0 156 1 249 3 136 2 5 0 184 1 129 3 94 2 105 0 217 0 243 3 46 2 229 1 0 0 134 2 248 3 107 1 47 0 111 2 179 3 177 1 102 0 130 2 97 3 172 1 169 0 153 2 3 3 139 1 249 0 180 1 143 3 99 2 91 0 213 1 9 3 53 2 213 0 251 0 138 2 251 3 91 1 40 0 108 2 188 3 174 1 96 0 128 2 109 3 176 1 161 0 150 2 12 3 142 1 238 0 176 1 153 3 102 2 78 0 208 1 30 3 60 2 197 0 246 0 154 3 6 3 79 1 35 0 108 2 195 3 166 1 87 0 125 2 119 3 179 1 152 0 147 2 27 3 147 1 228 0 173 1 171 3 109 2 67 0 204 1 49 3 67 2 185 0 242 0 161 3 10 3 64 1 29 0 107 2 202 3 160 1 82 0 123 2 129 3 182 1 145 0 145 2 35 3 150 1 220 0 170 1 188 3 114 2 57 0 201 1 56 3 69 2 168 0 237 0 175 3 18 3 51 1 24 0 110 2 212 3 155 1 76 0 121 2 136 3 183 1 138 0 142 2 49 3 155 1 213 0 168 1 198 3 118 2 46 0 198 1 71 3 74 2 155 0 233 0 178 3 20 3 34 1 18 0 109 2 215 3 144 1 69 0 118 2 142 3 183 1 129 0 139 2 56 3 157 1 201 0 164 1 213 3 123 2 35 0 194 1 83 3 78 2 141 0 228 0 199 3 29 3 20 1 14 0 116 2 227 3 137 1 64 0 116 2 154 3 184 1 122 0 137 2 63 3 160 1 191 0 161 1 221 3 126 2 23 0 190 1 101 3 84 2 127 0 224 0 213 3 35 3 2 1 9 0 120 2 233 3 127 1 58 0 114 2 160 3 182 1 115 0 135 2 79 3 165 1 186 0 159 1 238 3 132 2 16 0 188 1 115 3 89 2 117 0 221 0 234 3 43 2 249 1 6 0 124 2 238 3 118 1 53 0 113 2 170 3 181 1 109 0 132 2 88 3 169 1 177 0 156 1 236 3 131 2 1 0 183 1 133 3 95 2 105 0 217 0 246 3 47 2 229 1 0 0 136 2 249 3 107 1 47 0 111 2 174 3 175 1 101 0 130 2 98 3 172 1 168 0 153 2 0 3 138 1 248 0 180 1 146 3 100 2 91 0 212 1 9 3 53 2 214 0 251 0 138 2 252 3 90 1 39 0 108 2 184 3 171 1 94 0 127 2 103 3 174 1 159 0 149 2 16 3 144 1 239 0 177 1 158 3 104 2 78 0 208 1 20 3 57 2 197 0 246 0 154 3 6 3 81 1 36 0 108 2 196 3 170 1 90 0 126 2 122 3 180 1 154 0 148 2 25 3 147 1 231 0 174 1 171 3 108 2 69 0 205 1 38 3 63 2 186 0 242 0 160 3 10 3 66 1 30 0 107 2 202 3 162 1 83 0 123 2 131 3 183 1 147 0 145 2 36 3 150 1 221 0 171 1 185 3 114 2 57 0 202 1 60 3 71 2 171 0 238 0 177 3 19 3 51 1 25 0 108 2 208 3 153 1 75 0 121 2 131 3 182 1 136 0 142 2 47 3 154 1 211 0 167 1 195 3 117 2 44 0 197 1 71 3 74 2 154 0 232 0 187 3 24 3 34 1 19 0 112 2 219 3 146 1 69 0 118 2 146 3 185 1 130 0 140 2 59 3 158 1 202 0 164 1 211 3 122 2 34 0 194 1 90 3 80 2 143 0 229 0 196 3 28 3 19 1 14 0 114 2 225 3 138 1 64 0 117 2 153 3 183 1 122 0 137 2 68 3 161 1 195 0 162 1 223 3 127 2 24 0 190 1 100 3 84 2 130 0 225 0 217 3 37 3 6 1 10 0 122 2 235 3 129 1 59 0 115 2 163 3 183 1 116 0 135 2 82 3 166 1 186 0 159 1 239 3 132 2 13 0 187 1 111 3 88 2 114 0 220 0 227 3 40 2 241 1 4 0 125 2 240 3 116 1 52 0 112 2 171 3 181 1 108 0 132 2 89 3 169 1 176 0 156 1 250 3 136 2 3 0 183 1 134 3 96 2 106 0 217 0 253 3 49 2 229 1 0 0 134 2 248 3 104 1 46 0 110 2 182 3 178 1 101 0 130 2 99 3 172 1 168 0 153 2 4 3 139 1 248 0 180 1 148 3 101 2 91 0 212 1 5 3 52 2 209 0 250 0 140 2 253 3 91 1 40 0 109 2 193 3 175 1 96 0 128 2 111 3 176 1 161 0 150 2 15 3 143 1 236 0 176 1 155 3 103 2 79 0 208 1 8 3 53 2 196 0 245 0 137 2 251 3 76 1 34 0 107 2 193 3 168 1 89 0 126 2 115 3 177 1 154 0 148 2 27 3 148 1 232 0 175 1 172 3 109 2 70 0 205 1 36 3 62 2 185 0 242 0 165 3 13 3 71 1 32 0 108 2 203 3 163 1 83 0 123 2 128 3 182 1 146 0 145 2 38 3 151 1 221 0 171 1 183 3 113 2 56 0 201 1 51 3 68 2 170 0 237 0 175 3 18 3 53 1 25 0 110 2 213 3 156 1 77 0 121 2 137 3 183 1 138 0 143 2 50 3 155 1 211 0 168 1 203 3 119 2 45 0 197 1 73 3 75 2 156 0 233 0 189 3 25 3 39 1 20 0 112 2 219 3 149 1 71 0 119 2 146 3 184 1 131 0 140 2 58 3 158 1 204 0 165 1 215 3 124 2 37 0 194 1 91 3 81 2 145 0 230 0 205 3 32 3 27 1 16 0 113 2 222 3 138 1 65 0 117 2 148 3 183 1 124 0 137 2 71 3 163 1 197 0 163 1 224 3 127 2 28 0 191 1 100 3 84 2 131 0 225 0 221 3 38 3 9 1 11 0 122 2 234 3 130 1 59 0 115 2 163 3 184 1 118 0 135 2 84 3 167 1 189 0 160 1 238 3 132 2 16 0 188 1 112 3 89 2 118 0 221 0 235 3 43 2 248 1 6 0 125 2 239 3 119 1 53 0 113 2 170 3 182 1 111 0 133 2 89 3 168 1 179 0 156 1 248 3 135 2 6 0 184 1 135 3 96 2 108 0 218 0 246 3 47 2 232 1 1 0 134 2 247 3 109 1 48 0 111 2 174 3 178 1 104 0 131 2 95 3 171 1 172 0 154 2 2 3 138 1 255 0 182 1 147 3 101 2 99 0 215 1 2 3 51 2 221 0 253 0 137 2 250 3 97 1 43 0 109 2 187 3 176 1 98 0 129 2 106 3 174 1 164 0 151 2 5 3 139 1 242 0 177 1 151 3 102 2 83 0 210 1 23 3 58 2 205 0 248 2 25 3 148 3 177 3 255 3 255 3 255 3 255 3 255 3 255 3 255 3 255 2 178 3 206 3 255 3 255 2 143 3 195 3 255 3 255 2 25 3 142 3 255 3 255 2 56 3 32 3 239 3 255 2 157 2 187 3 207 3 255 3 24 2 125 3 187 3 255 3 175 1 166 3 112 3 255 3 255 1 120 0 139 1 66 3 38 1 44 0 109 0 169 3 17 1 101 0 128 0 66 2 205 1 171 0 152 0 57 2 132 1 254 0 180 0 67 2 50 2 114 0 217 0 80 1 205 2 254 1 9 0 96 1 87 3 72 1 83 0 122 0 206 3 31 1 228 0 172 0 107 2 237 2 163 0 235 0 86 2 176 3 65 1 31 0 105 2 99 3 148 1 87 0 125 2 2 3 138 1 153 0 147 1 149 3 101 1 233 0 174 1 12 3 54 2 74 0 206 0 140 3 0 2 198 0 246 0 92 2 192 3 76 1 35 0 106 2 114 3 154 1 90 0 126 2 24 3 146 1 157 0 149 1 173 3 109 1 236 0 175 1 44 3 65 2 79 0 208 0 159 3 11 2 197 0 246 0 96 2 204 3 77 1 35 0 106 2 134 3 158 1 90 0 126 2 44 3 153 1 154 0 147 1 195 3 117 1 232 0 174 1 69 3 73 2 71 0 205 0 181 3 21 2 190 0 243 0 131 2 246 3 69 1 249 3 142 3 255 3 117 1 48 0 112 2 44 2 233 1 0 0 93 1 161 3 105 1 213 0 168 1 67 3 72 2 58 0 201 0 178 3 20 2 176 0 239 0 102 2 217 3 61 1 28 0 104 2 148 3 158 1 226 3 135 3 255 3 242 1 100 0 131 1 215 3 62 1 42 0 108 1 66 3 68 1 92 0 126 0 172 3 18 1 161 0 149 0 79 2 216 1 243 0 177 0 66 2 124 3 125 1 65 0 117 2 64 3 159 1 132 0 140 1 219 3 125 1 206 0 165 1 103 3 85 2 47 0 198 0 214 3 35 2 161 0 234 0 117 2 236 3 42 1 22 0 102 2 174 3 148 1 75 0 120 2 88 3 167 1 136 0 141 1 245 3 134 1 208 0 166 1 128 3 93 2 44 0 196 0 242 3 45 2 156 0 233 0 129 2 247 3 37 1 20 0 117 2 226 3 173 1 86 0 125 2 97 3 170 1 133 0 141 1 254 3 137 1 208 0 166 1 141 3 98 2 44 0 197 1 8 3 53 2 158 0 233 0 137 2 252 3 39 1 20 0 102 2 186 3 145 1 71 0 119 2 112 3 175 1 135 0 141 2 9 3 141 1 206 0 165 1 162 3 106 2 42 0 196 1 30 3 60 2 153 0 232 0 159 3 10 3 34 1 19 0 106 2 207 3 141 3 190 3 255 3 255 3 220 3 189 3 255 3 255 3 255 3 57 3 251 3 255 3 255 2 89 3 177 3 255 3 255 2 35 0 198 1 59 3 70 1 233 0 175 0 67 2 178 2 14 0 186 0 69 2 96 2 122 0 220 0 81 1 253 2 246 1 5 0 95 1 140 3 63 1 54 0 112 0 252 3 47 1 112 0 132 0 118 2 248 1 185 0 157 0 61 2 181 2 17 0 186 0 69 2 103 2 126 0 221 0 81 2 10 2 253 1 7 0 96 1 158 3 72 1 59 0 114 0 249 3 46 1 113 0 133 0 112 2 245 1 188 0 158 0 61 2 182 2 44 0 195 0 72 2 110 3 12 1 12 0 98 2 25 3 146 1 136 0 141 1 193 3 116 1 236 0 175 1 75 3 75 2 83 0 210 0 188 3 25 2 206 0 248 0 110 2 226 3 87 1 39 0 108 2 150 3 164 1 94 0 127 2 63 3 160 1 162 0 150 1 217 3 124 1 243 0 178 1 95 3 82 2 86 0 211 0 213 3 35 2 212 0 251 0 115 2 231 3 91 1 41 0 109 2 164 3 170 1 97 0 128 2 83 3 167 1 166 0 152 1 235 3 131 1 245 0 178 1 113 3 88 2 87 0 211 0 234 3 43 2 211 0 250 0 128 2 243 3 92 1 41 0 109 2 173 3 170 1 95 0 127 2 96 3 171 1 162 0 151 1 253 3 137 1 242 0 178 1 144 3 99 2 84 0 210 1 3 3 51 2 206 0 248 0 138 2 251 3 85 1 38 0 108 2 185 3 170 1 93 0 127 2 106 3 174 1 158 0 149 2 9 3 141 1 236 0 176 1 154 3 103 2 76 0 208 1 17 3 56 2 194 0 245 0 143 2 255 3 75 1 34 0 107 2 192 3 167 1 88 0 126 2 117 3 178 1 152 0 147 2 18 3 144 1 229 0 174 1 162 3 106 2 70 0 206 1 31 3 61 2 186 0 242 0 157 3 8 3 67 1 30 0 107 2 198 3 162 1 83 0 124 2 120 3 179 1 145 0 145 2 32 3 149 1 223 0 171 1 179 3 111 2 59 0 202 1 35 3 62 2 171 0 238 0 166 3 13 3 54 1 26 0 106 2 202 3 155 1 78 0 121 2 127 3 181 1 140 0 143 2 40 3 152 1 216 0 169 1 188 3 114 2 50 0 199 1 62 3 71 2 164 0 236 0 176 3 18 3 46 1 23 0 114 2 221 3 152 1 73 0 183 3 17 3 231 1 162 1 135 3 99 3 255 2 14 0 189 1 205 3 120 2 30 0 193 1 47 3 66 2 133 0 226 0 177 3 19 3 16 1 13 0 102 2 201 3 128 1 61 0 116 2 131 3 183 3 255 3 255 3 255 3 255 1 223 1 213 3 127 3 255 1 169 0 155 1 58 3 69 1 129 0 139 0 146 3 7 1 197 0 161 0 68 2 197 2 32 0 191 0 71 2 121 2 143 0 227 0 83 2 30 3 12 1 13 0 98 1 178 3 80 1 63 0 116 1 48 3 65 1 125 0 137 0 158 3 13 1 200 0 162 0 72 2 205 2 32 0 192 0 71 2 130 2 149 0 229 0 84 2 42 3 17 1 15 0 98 1 193 3 85 1 66 0 117 1 68 3 72 1 128 0 138 0 178 3 21 1 203 0 163 0 81 2 216 2 39 0 194 0 72 2 144 2 153 0 230 0 84 2 58 3 22 1 17 0 99 1 212 3 92 1 69 0 118 1 92 3 80 1 130 0 139 0 200 3 29 1 206 0 164 0 95 2 230 2 45 2 177 3 200 3 255 3 176 1 70 0 120 2 73 3 19 1 16 0 99 1 211 3 93 1 71 0 119 1 94 3 81 1 193 0 161 0 216 3 36 2 175 0 239 0 124 2 243 3 82 1 38 0 107 2 179 3 168 1 94 0 127 2 104 3 174 1 163 0 151 2 9 3 141 1 243 0 178 1 152 3 102 2 87 0 211 1 9 3 53 2 206 0 248 0 144 3 0 3 92 1 41 0 109 2 195 3 175 1 97 0 128 2 112 3 177 1 164 0 151 2 21 3 145 1 245 0 179 1 169 3 108 2 88 0 211 1 33 3 61 2 211 0 250 0 160 3 10 3 91 1 40 0 110 2 201 3 175 1 95 0 128 2 124 3 181 1 161 0 151 2 33 3 149 1 241 0 177 1 184 3 113 2 83 0 210 1 57 3 69 2 203 0 248 0 171 3 16 3 83 1 37 0 113 2 212 2 137 3 111 3 255 3 255 3 255 1 230 1 200 3 123 3 242 1 122 0 139 1 171 3 101 1 97 0 127 1 17 3 54 1 160 0 149 0 135 3 2 1 243 2 33 3 152 3 255 3 72 2 159 3 198 3 255 3 221 1 89 0 127 2 161 3 127 1 63 0 117 2 152 3 189 1 195 3 113 3 255 3 255 2 63 0 206 2 19 3 145 2 56 2 223 3 217 3 255 3 46 1 27 0 105 2 109 2 157 0 231 0 85 1 253 3 17 1 16 0 99 1 139 3 75 1 68 0 117 1 6 3 50 1 130 0 139 0 123 2 251 1 207 0 165 0 65 2 187 2 43 0 195 0 72 2 110 2 159 0 232 0 85 2 20 3 36 1 24 0 102 1 174 3 89 1 75 2 234 3 219 3 255 2 40 0 198 0 171 3 17 1 208 0 165 0 69 2 197 2 39 0 194 0 72 2 122 2 153 0 230 0 84 2 38 3 23 1 18 0 100 1 188 3 88 1 70 0 118 1 69 3 72 1 132 0 140 0 189 3 26 2 7 3 134 3 255 3 255 3 39 1 25 0 104 2 152 2 149 0 229 0 84 2 51 3 14 1 14 0 99 1 204 3 86 1 65 2 15 3 145 3 255 2 186 0 246 0 219 3 37 1 205 0 164 0 105 2 237 2 37 0 193 0 72 2 154 2 164 0 234 0 86 2 55 3 37 1 24 0 102 1 210 3 121 1 140 0 142 1 106 3 85 1 201 3 121 3 255 3 255 2 130 1 86 3 83 3 254 2 207 1 237 3 138 3 255 3 119 1 49 0 113 2 82 2 244 1 3 0 95 1 224 3 74 1 50 0 111 1 102 3 82 1 107 0 131 0 229 3 39 1 179 0 156 0 98 2 233 2 7 1 242 3 136 3 255 3 113 1 47 0 112 2 95 2 240 1 2 0 95 1 236 3 68 1 45 0 109 1 135 3 94 1 110 0 132 0 243 3 44 1 176 0 155 0 125 2 252 2 25 3 118 3 255 3 255 3 125 1 52 0 114 2 112 2 224 0 253 0 93 1 255 3 67 1 43 0 109 1 144 3 95 1 102 0 129 1 14 3 53 1 169 0 152 0 132 2 255 1 251 0 180 0 70 2 191 2 101 0 214 0 79 2 118 2 227 0 253 0 93 2 37 3 74 1 43 0 109 1 213 3 116 1 102 0 129 2 124 3 180 1 234 0 176 2 41 3 152 2 77 0 208 1 187 3 115 2 193 0 246 1 62 3 72 3 76 1 33 0 170 3 12 3 177 1 85 0 126 2 205 3 207 1 149 0 146 2 126 3 181 1 223 0 172 2 35 3 150 2 60 0 203 1 190 3 115 2 176 0 240 1 65 3 73 3 58 1 27 0 179 3 18 3 173 1 81 0 123 2 196 3 203 1 140 2 34 3 152 3 255 2 38 0 197 2 7 3 141 2 36 0 194 1 146 3 100 2 197 2 183 3 206 3 255 3 255 3 255 3 255 3 255 3 255 1 184 0 165 2 226 3 206 1 124 0 138 2 125 3 181 1 188 0 160 2 25 3 147 2 13 0 187 1 177 3 111 2 120 0 222 1 25 3 59 2 244 1 5 0 119 2 232 3 102 1 45 0 110 1 224 3 75 1 50 0 111 1 102 3 84 1 125 1 239 3 135 3 255 2 163 1 171 1 10 3 54 1 132 0 218 0 89 2 206 2 166 0 235 0 87 2 81 3 11 1 11 0 98 1 226 3 89 1 61 0 115 1 94 3 81 1 117 0 134 0 195 3 28 1 193 0 160 0 102 2 235 2 34 0 193 0 71 2 146 2 140 0 226 2 45 3 154 3 209 1 91 0 127 1 223 3 86 1 59 0 114 1 82 3 77 1 119 0 135 0 226 3 39 1 249 3 36 3 239 3 255 3 66 1 33 0 107 2 157 3 192 3 59 1 29 2 139 3 23 1 15 0 100 1 232 3 107 1 77 0 121 1 85 3 78 3 186 1 83 1 39 3 65 3 247 3 255 3 255 3 255 2 201 0 252 0 94 2 150 2 107 0 216 0 80 2 70 2 243 1 2 0 95 1 235 3 81 1 53 0 112 1 104 3 84 1 111 0 132 0 215 3 34 1 181 0 156 0 94 2 229 2 8 0 184 0 68 2 160 2 115 0 218 0 80 2 81 2 245 1 3 0 95 2 35 3 104 1 64 0 116 1 125 3 91 1 112 0 133 1 2 3 49 1 188 0 159 0 114 2 244 2 14 0 186 0 69 2 176 2 119 0 220 0 81 2 99 2 254 1 6 0 96 2 24 3 95 1 58 0 114 1 153 3 101 1 116 0 134 1 49 3 66 1 194 0 161 0 156 3 11 2 21 0 188 0 81 2 208 2 127 0 223 0 82 2 153 3 10 1 11 0 98 2 62 3 102 1 59 0 115 1 213 3 121 1 119 0 135 1 82 3 77 1 191 0 160 0 185 3 24 2 24 0 189 0 89 2 218 2 129 0 223 0 ---N ---S 0 137 1 231 3 73 1 49 0 111 1 89 3 79 1 166 0 151 0 199 3 29 2 72 0 205 0 104 2 230 2 138 0 226 0 84 2 157 2 121 0 220 0 81 2 71 2 247 1 4 0 95 1 227 3 79 1 54 0 113 1 116 3 88 1 115 0 134 0 228 3 39 1 189 0 159 0 104 2 238 2 22 0 189 0 70 2 169 2 134 0 224 0 82 2 88 3 6 1 10 0 97 1 247 3 116 1 87 0 124 1 115 3 88 1 202 0 164 0 232 3 40 2 142 0 228 0 133 2 250 2 154 0 232 0 85 2 180 3 51 1 26 0 103 2 97 3 139 1 84 0 123 2 13 3 142 1 161 0 150 2 143 3 187 1 180 2 148 3 191 3 255 2 103 2 96 3 175 3 255 2 214 0 255 0 95 2 186 3 58 1 29 0 104 2 107 3 142 1 84 0 124 2 8 3 140 1 145 0 144 1 185 3 111 2 97 3 177 3 255 3 255 2 107 0 221 2 217 3 212 2 180 0 243 0 91 2 186 3 29 2 171 3 200 3 255 3 255 1 175 0 157 2 22 3 142 1 119 0 136 1 145 3 99 1 183 0 157 1 13 3 53 2 12 0 186 0 134 2 254 2 130 0 224 0 84 2 188 3 18 1 13 1 253 3 138 3 158 1 65 0 118 2 15 3 141 1 123 0 137 1 162 3 105 1 207 0 166 1 26 3 58 2 61 0 202 0 149 3 6 2 174 0 238 0 91 2 196 3 53 1 26 0 103 2 125 3 149 1 86 0 124 2 35 3 149 1 169 0 153 1 185 3 113 1 253 0 181 1 61 3 70 2 104 0 216 0 180 3 21 2 240 1 3 0 104 2 214 3 110 1 50 0 112 2 134 3 173 1 113 0 134 2 52 3 155 1 180 0 157 1 195 3 117 2 17 0 188 1 76 3 76 2 134 0 226 0 185 3 23 3 35 1 19 0 112 2 219 3 140 1 66 0 118 2 146 3 180 1 121 0 137 2 48 3 154 1 179 0 156 1 206 3 120 2 13 0 187 1 86 3 79 2 120 0 222 0 192 3 26 2 234 1 1 0 111 2 224 3 99 1 45 0 110 2 145 3 187 1 153 0 148 2 67 3 160 1 189 0 160 1 203 3 119 2 69 0 205 1 100 3 84 2 192 0 245 0 205 3 31 3 85 1 37 0 120 2 225 3 153 1 74 0 120 2 159 3 191 1 142 0 144 2 64 3 160 1 212 0 168 1 230 3 129 2 43 0 197 1 100 3 84 2 107 0 218 0 210 3 34 2 252 2 40 3 157 3 255 3 255 1 127 0 140 2 164 3 166 1 93 0 127 2 65 3 160 1 146 0 145 1 215 3 123 1 232 0 174 1 91 3 80 2 72 0 206 0 208 3 33 2 199 0 246 0 106 2 221 3 74 1 34 0 106 2 159 3 160 1 89 1 34 3 63 3 246 1 221 0 172 1 234 3 130 1 227 0 173 1 117 3 89 2 56 1 54 3 71 3 249 3 169 3 255 3 255 3 255 3 255 1 141 3 83 3 255 3 116 1 48 0 113 2 63 2 253 1 6 0 96 1 188 3 69 1 51 0 111 1 67 3 71 1 109 0 131 0 175 3 19 1 183 0 157 0 78 2 213 2 14 0 186 0 69 2 140 2 120 0 220 0 81 2 51 2 251 1 6 0 95 1 201 3 75 1 55 0 113 1 80 3 76 1 115 0 133 0 189 3 25 1 190 0 159 0 84 2 221 2 24 0 189 0 70 2 148 2 131 0 223 0 82 2 62 3 7 1 10 0 97 1 217 3 85 1 61 0 115 1 109 3 86 1 126 0 137 0 219 3 36 1 199 0 162 0 98 2 232 2 35 0 193 0 71 2 162 2 147 0 228 0 84 2 79 3 19 1 15 0 99 1 237 3 96 1 68 0 117 1 120 3 89 1 128 0 138 0 230 3 40 1 203 0 164 0 103 2 236 2 38 0 194 0 72 2 168 2 152 0 230 0 84 2 86 3 27 1 19 0 100 1 245 3 100 1 71 0 118 1 129 3 93 1 133 0 140 0 243 3 44 1 209 0 166 0 113 2 243 2 47 0 197 0 73 2 176 2 163 0 234 0 86 2 97 3 35 1 22 0 101 2 0 3 106 1 74 0 119 1 144 3 98 1 140 0 142 1 6 3 50 1 214 0 167 0 123 2 250 2 53 0 199 0 74 2 183 2 173 0 237 0 87 2 104 3 39 1 24 0 102 2 10 3 110 1 77 0 121 1 154 3 102 1 141 0 143 1 20 3 55 1 218 0 169 0 134 3 0 2 57 0 200 0 77 2 193 2 176 0 238 0 87 2 115 3 45 1 26 0 103 2 23 3 115 1 80 0 121 1 173 3 109 1 146 0 144 1 43 3 63 1 224 0 171 0 153 3 10 2 65 0 203 0 81 2 202 2 187 0 241 0 89 2 127 3 52 1 29 0 104 2 37 3 121 1 83 0 123 1 183 3 112 1 149 0 146 1 53 3 67 1 224 0 171 0 161 3 14 2 67 0 204 0 82 2 204 2 185 0 240 0 88 2 121 3 48 1 28 0 104 2 31 3 118 1 82 0 122 1 178 3 110 1 147 0 145 1 47 3 65 1 224 0 171 0 154 3 11 2 64 0 202 0 80 2 201 2 184 0 240 0 88 2 126 3 51 1 29 0 104 2 38 3 120 1 82 0 122 1 191 3 115 1 149 0 146 1 62 3 70 1 227 0 172 0 167 3 16 2 71 0 205 0 86 2 211 2 190 0 242 0 89 2 134 3 55 1 30 0 104 2 44 3 124 1 85 0 123 1 194 3 116 1 150 0 146 1 67 3 72 1 230 0 173 0 176 3 20 2 70 0 205 0 88 2 214 2 194 0 244 0 89 2 141 3 60 1 32 0 105 2 51 3 127 1 87 0 124 1 204 3 119 1 154 0 147 1 80 3 76 1 231 0 173 0 206 3 32 2 80 0 208 0 101 2 229 2 199 0 245 0 90 2 157 3 67 1 36 0 106 2 66 3 131 1 88 0 125 1 211 3 122 1 154 0 147 1 90 3 80 1 231 0 174 0 195 3 28 2 72 0 205 0 102 2 230 2 197 0 245 0 99 2 213 3 100 1 54 3 29 3 236 3 255 1 195 0 164 1 245 3 134 1 152 0 147 1 107 3 86 1 228 0 173 1 36 3 61 2 90 1 64 3 75 3 250 3 140 1 58 0 115 2 171 3 56 1 30 0 104 2 73 3 126 1 81 0 122 1 237 3 131 1 148 2 237 3 220 3 255 2 131 0 228 0 241 3 44 2 57 0 200 0 101 2 230 2 169 0 236 0 87 2 162 3 42 1 24 0 102 2 72 3 121 1 76 0 120 1 229 3 128 1 140 0 142 1 120 3 90 1 218 0 169 0 219 3 36 2 51 0 198 0 103 2 233 2 166 0 235 0 86 2 162 3 37 1 22 0 102 2 78 3 121 1 76 0 120 2 3 3 138 1 146 0 145 1 116 3 89 1 217 0 169 2 52 3 156 2 145 0 230 0 128 2 248 2 175 0 238 0 87 2 169 3 42 1 24 0 102 2 122 3 141 1 85 0 124 2 1 3 138 1 143 2 239 3 220 3 255 2 121 0 225 1 113 3 89 2 77 0 240 3 30 3 235 3 98 1 42 2 176 3 199 3 204 1 88 0 126 2 91 3 111 1 64 0 116 1 226 3 124 1 121 0 136 1 102 3 84 1 193 0 160 0 215 3 35 2 27 0 190 0 104 2 234 2 134 0 225 0 83 2 164 3 11 1 12 0 98 2 87 3 109 2 240 3 223 3 255 3 255 2 14 0 190 1 121 3 91 1 187 0 159 0 200 3 30 2 13 0 186 0 93 2 225 2 121 0 221 0 81 2 153 2 249 1 5 0 96 2 68 3 92 1 54 0 113 1 224 3 121 1 114 0 133 1 103 3 84 1 186 0 158 0 212 3 34 2 17 0 187 0 100 2 231 2 127 0 223 0 82 2 160 3 0 1 7 0 96 2 77 3 100 1 59 0 114 1 234 3 125 1 118 0 135 1 117 3 89 1 190 0 159 0 231 3 40 2 21 0 188 0 108 2 238 2 130 0 224 0 82 2 168 3 6 1 10 0 97 2 86 3 99 1 58 0 114 1 243 3 128 1 119 0 135 1 128 3 93 1 191 0 160 0 241 3 44 2 24 0 189 0 114 2 242 2 133 0 224 0 83 2 174 3 8 1 11 0 97 2 93 3 106 1 62 0 115 1 252 3 132 1 123 0 137 1 136 3 95 1 192 0 160 0 253 3 48 2 27 0 190 0 121 2 247 2 136 0 226 0 83 2 181 3 13 1 13 0 98 2 103 3 106 1 61 0 115 2 4 3 134 1 122 0 136 1 148 3 100 1 196 0 162 1 12 3 53 2 28 0 191 0 138 3 2 2 140 0 227 0 84 2 179 3 13 1 13 0 98 2 104 3 107 1 62 0 115 2 11 3 138 1 127 0 138 1 173 3 108 2 14 0 187 2 193 3 204 3 135 1 57 0 175 3 15 3 18 1 14 0 99 2 187 3 193 1 131 0 140 2 129 3 112 1 62 2 240 3 220 3 255 1 239 1 12 3 54 3 243 2 29 0 194 1 62 3 71 2 14 0 187 2 59 3 159 2 235 3 57 3 248 3 255 3 232 1 97 0 130 2 131 3 87 1 46 0 110 2 13 3 128 2 127 3 187 3 255 3 255 2 79 2 116 3 182 3 255 2 154 0 236 0 147 3 3 2 76 0 207 0 79 2 190 2 201 0 246 0 90 2 82 3 47 1 28 0 104 1 234 3 105 1 82 3 21 3 232 3 255 2 46 0 200 1 34 3 61 1 229 0 206 3 17 3 231 3 189 1 78 0 123 2 186 2 170 0 236 0 87 2 111 3 45 1 26 0 103 2 1 3 109 1 78 0 121 1 150 3 100 2 103 3 180 3 255 3 255 2 162 0 239 0 159 3 9 2 60 0 201 0 75 2 179 2 167 0 235 0 86 2 97 3 36 1 23 0 102 2 7 3 109 1 76 0 120 1 143 3 98 1 138 0 142 1 24 3 57 1 218 0 169 0 123 2 250 2 53 0 199 0 74 2 181 2 169 0 236 0 86 2 103 3 41 1 25 0 102 2 11 3 111 1 78 0 121 1 153 3 102 1 143 0 143 1 17 3 54 1 221 0 170 0 133 3 0 2 61 0 201 0 76 2 190 2 179 0 239 0 88 2 111 3 45 1 26 0 103 2 17 3 115 1 81 0 122 1 157 3 103 1 144 0 144 1 26 3 57 1 222 0 170 0 138 3 3 2 64 0 202 0 77 2 194 2 183 0 240 0 88 2 117 3 51 1 29 0 104 2 23 3 118 1 84 0 123 1 171 3 107 1 149 0 145 1 41 3 62 1 228 0 172 0 149 3 8 2 68 0 204 0 80 2 199 2 187 0 241 0 88 2 124 3 57 1 32 0 105 2 34 3 122 1 86 0 124 1 183 3 112 1 152 0 147 1 54 3 67 1 231 0 173 0 162 3 14 2 73 0 206 0 83 2 206 2 189 0 242 0 89 2 131 3 58 1 32 0 105 2 40 3 125 1 88 0 124 1 189 3 114 1 151 0 146 1 61 3 69 1 232 0 174 0 167 3 16 2 74 0 206 0 85 2 210 2 197 0 245 0 90 2 135 3 63 1 34 0 106 2 47 3 128 1 89 0 125 1 198 3 117 1 157 0 148 1 73 3 74 1 237 0 175 0 178 3 21 2 79 0 208 0 89 2 216 2 202 0 246 0 90 2 141 3 67 1 36 0 106 2 55 3 131 1 91 0 126 1 206 3 120 1 157 0 148 1 80 3 76 1 238 0 176 0 188 3 25 2 80 0 208 0 93 2 220 2 207 0 248 0 91 2 146 3 67 1 36 0 107 2 59 3 131 1 91 0 125 1 211 3 122 1 156 0 148 1 92 3 80 1 238 0 176 0 194 3 28 2 79 0 208 0 98 2 226 2 207 0 248 0 91 2 154 3 70 1 37 0 107 2 68 3 135 1 93 0 127 1 224 3 126 1 160 0 149 1 97 3 82 1 240 0 176 0 201 3 30 2 80 0 208 0 105 2 233 2 212 0 249 0 91 2 163 3 77 1 41 0 108 2 70 3 135 1 93 0 126 1 221 3 126 1 159 0 149 1 100 3 83 1 239 0 176 0 205 3 32 2 83 0 209 0 99 2 227 2 201 0 246 0 90 2 171 3 77 1 40 0 108 2 85 3 140 1 95 0 127 1 242 3 132 1 161 0 150 1 105 3 85 1 236 0 175 0 212 3 34 2 77 0 207 0 101 2 230 2 201 0 246 0 90 2 161 3 66 1 36 0 106 2 85 3 137 1 92 0 126 1 243 3 133 1 162 0 150 1 97 3 82 1 234 3 11 3 230 3 255 3 41 3 136 3 255 3 255 3 188 3 32 3 241 3 255 3 255 1 131 0 143 2 103 3 142 1 90 0 126 1 202 3 118 1 132 0 140 1 71 3 73 1 206 0 165 0 185 3 24 2 55 0 199 0 92 2 221 2 202 0 246 0 90 2 151 3 121 1 66 0 117 2 71 3 162 1 218 0 170 1 245 3 134 2 88 0 212 1 132 3 95 2 217 0 253 0 249 3 48 3 102 1 46 0 140 2 247 3 188 1 103 0 130 2 175 3 198 1 170 0 154 2 90 3 169 1 252 0 181 2 6 3 140 2 101 0 216 1 143 3 99 2 226 0 255 1 5 3 52 3 107 1 48 0 145 2 251 3 191 1 104 0 131 2 185 3 201 1 173 0 155 2 106 3 174 1 255 0 183 2 8 3 140 2 98 0 215 1 149 3 101 2 223 0 255 1 9 3 54 3 104 1 46 0 147 2 253 3 190 1 102 0 130 2 182 3 200 1 169 0 154 2 104 3 173 1 250 0 181 2 7 3 141 2 93 0 213 1 149 3 101 2 215 0 252 1 7 3 53 3 95 1 42 0 146 2 252 3 184 1 97 0 128 2 185 3 201 1 163 0 151 2 107 3 174 1 243 0 179 2 8 3 141 2 83 0 210 1 149 3 101 2 203 0 248 1 9 3 54 3 86 1 39 0 150 2 255 3 181 1 93 0 127 2 186 3 201 1 158 0 150 2 107 3 174 1 238 0 177 1 255 3 138 2 74 0 207 1 147 3 101 2 195 0 246 1 16 3 56 3 198 3 255 3 255 3 255 3 255 3 255 3 255 3 255 3 238 1 98 2 21 3 147 3 231 1 109 0 134 1 230 3 109 1 84 0 123 1 91 3 80 1 146 0 144 0 199 3 29 1 224 0 171 0 93 2 227 2 68 3 83 3 253 3 255 3 209 1 85 0 125 2 85 3 50 2 186 3 205 3 255 3 255 1 217 0 183 2 246 3 222 1 229 1 198 3 121 3 255 2 115 1 187 3 119 3 255 2 247 2 235 3 222 3 255 3 168 1 66 0 119 2 69 3 11 1 12 1 161 3 106 3 255 1 155 0 151 2 212 3 210 1 206 0 166 1 252 3 137 2 4 0 184 0 84 2 212 2 16 0 186 0 69 2 142 2 129 0 223 0 82 2 66 3 12 1 12 0 98 1 222 3 88 1 63 0 115 1 99 3 82 1 123 0 136 1 24 3 57 1 214 0 168 0 92 2 226 2 30 0 191 0 71 2 176 2 158 0 232 1 235 3 131 3 198 1 87 0 125 1 234 3 94 1 65 0 116 1 108 3 85 1 126 0 137 0 177 3 21 1 189 0 159 0 98 2 232 2 36 0 193 0 72 2 163 2 147 0 229 0 84 2 79 3 20 1 16 0 99 1 240 3 98 1 69 0 118 1 126 3 92 1 134 0 140 2 199 3 205 2 67 0 206 0 108 2 234 2 37 0 193 0 72 2 148 2 144 0 228 0 84 2 74 3 22 1 16 0 100 1 240 3 101 1 72 0 119 1 123 3 91 1 133 0 140 0 224 3 38 1 206 0 164 0 112 2 242 2 48 0 197 0 73 2 158 2 152 0 230 0 85 2 92 3 34 1 21 0 101 1 250 3 105 1 75 0 120 1 140 3 97 1 138 0 142 0 225 3 38 1 207 0 165 0 103 2 236 2 43 0 195 0 72 2 168 2 158 0 232 0 85 2 99 3 40 1 24 0 102 2 11 3 113 1 79 0 122 2 16 3 143 1 172 0 153 1 27 3 58 1 222 0 170 0 133 2 255 2 60 0 201 1 13 3 54 3 9 1 11 0 98 2 106 3 44 1 26 0 103 2 22 3 118 1 82 0 122 1 155 3 102 1 143 0 144 1 22 3 56 1 222 0 170 0 188 3 25 2 81 2 129 3 185 3 255 3 177 1 72 0 121 2 124 3 47 1 26 0 103 2 20 3 113 1 77 0 121 1 154 3 102 1 139 0 142 0 252 3 47 1 210 0 166 0 119 2 247 2 48 0 197 0 76 2 195 2 177 0 238 0 88 2 106 3 36 1 22 0 102 2 14 3 111 1 77 0 120 1 166 3 106 1 141 0 143 1 85 3 78 1 232 0 174 0 130 2 253 2 53 0 199 0 75 2 186 2 172 0 237 0 87 2 106 3 39 1 24 0 102 2 12 3 111 1 78 0 121 1 157 3 103 1 141 0 143 1 22 3 56 1 223 0 170 0 148 3 7 2 65 0 203 0 77 2 192 2 181 0 239 0 88 2 113 3 49 1 29 0 104 2 22 3 117 1 83 0 123 1 167 3 106 1 148 0 145 1 33 3 60 1 227 0 172 0 151 3 9 2 68 0 204 0 81 2 201 2 190 0 243 0 89 2 136 3 65 1 35 0 106 2 42 3 126 1 88 0 124 1 180 3 111 1 151 0 147 1 48 3 65 1 230 0 173 0 155 3 11 2 70 0 204 0 82 2 204 2 192 0 243 0 89 2 127 3 60 1 33 0 105 2 37 3 124 1 88 0 124 1 185 3 113 1 154 0 147 1 55 3 67 1 233 0 174 0 164 3 15 2 75 0 206 0 84 2 209 2 197 0 245 0 90 2 139 3 67 1 36 0 107 2 47 3 129 1 91 0 125 1 194 3 116 1 154 0 147 1 62 3 70 1 235 0 175 0 170 3 18 2 78 0 207 0 86 2 211 2 201 0 246 0 90 2 136 3 67 1 36 0 107 2 48 3 129 1 92 0 126 1 203 3 119 1 159 0 149 1 133 3 95 1 254 0 181 0 190 3 26 2 84 0 209 0 89 2 215 2 205 0 247 0 91 2 141 3 68 1 37 0 107 2 53 3 131 1 93 0 131 2 220 3 212 1 231 0 174 1 106 3 85 1 244 0 178 0 184 3 23 2 82 0 208 0 91 2 217 2 198 0 245 0 90 2 146 3 67 1 36 0 106 2 75 3 139 1 96 0 127 1 223 3 126 1 162 0 150 1 102 3 84 1 243 1 25 3 60 3 244 3 0 3 23 3 236 3 255 3 190 1 237 3 140 3 255 3 255 1 126 0 140 2 68 3 123 1 79 0 121 1 208 3 120 1 139 0 142 1 94 3 81 1 222 0 170 0 212 3 34 2 63 0 202 0 125 2 249 2 194 0 244 0 90 2 142 3 41 1 24 0 102 2 47 3 116 1 77 0 120 1 198 3 117 1 139 0 142 1 71 3 73 1 217 0 168 0 178 3 21 2 57 0 200 0 87 2 215 2 174 0 237 0 87 2 143 3 48 1 27 0 104 2 55 3 120 1 80 0 122 1 209 3 121 1 144 0 144 1 89 3 79 1 223 0 171 0 193 3 27 2 62 0 202 0 93 2 222 2 179 0 239 0 88 2 150 3 50 1 28 0 104 2 64 3 124 1 82 0 122 1 217 3 124 1 146 0 145 1 95 3 81 1 223 0 171 0 202 3 30 2 63 0 202 0 96 2 225 2 179 0 239 0 88 2 155 3 49 1 28 0 104 2 68 3 123 1 81 0 122 1 224 3 126 1 147 0 145 1 121 3 91 1 229 0 173 0 219 3 36 2 66 0 204 0 100 2 229 2 182 0 240 0 88 2 158 3 53 1 29 0 104 2 78 3 130 1 85 0 123 1 235 3 130 1 150 0 146 1 107 3 86 1 228 0 172 0 219 3 36 2 69 0 204 0 105 2 234 2 188 0 242 0 89 2 164 3 57 1 31 0 105 2 97 3 139 1 90 0 125 1 247 3 134 1 152 0 147 1 166 3 106 1 241 0 177 1 12 3 53 2 77 0 207 0 135 2 255 2 200 0 246 0 90 2 183 3 65 1 34 1 38 3 64 3 236 1 146 0 145 2 19 3 144 1 154 3 4 3 227 3 255 2 135 0 230 1 48 3 66 2 68 0 205 0 114 2 241 2 165 0 235 0 86 2 175 3 42 1 24 1 68 3 74 3 236 1 140 2 93 3 172 3 255 1 250 1 215 3 127 3 255 2 85 0 225 3 9 3 228 2 181 0 243 1 115 3 90 2 225 0 255 0 101 2 212 3 44 1 24 0 103 2 94 3 114 1 67 0 117 2 1 3 136 1 131 2 72 3 165 3 255 2 87 0 214 0 230 3 40 2 26 0 190 0 94 2 225 2 127 0 223 0 82 2 154 3 1 1 8 0 97 2 67 3 98 1 59 0 114 1 222 3 122 1 118 0 135 1 133 3 95 1 200 0 163 1 87 3 79 2 57 0 201 0 120 2 245 2 142 0 228 0 84 2 177 3 17 1 14 0 99 2 95 3 112 1 65 0 116 2 0 3 134 1 125 0 137 1 124 3 91 1 194 0 169 2 238 3 218 2 164 0 238 0 131 2 249 2 139 0 227 0 84 2 162 3 2 1 8 0 97 2 76 3 98 1 58 0 114 1 232 3 124 1 118 0 135 1 113 3 88 2 100 3 180 3 255 3 255 2 242 1 8 0 136 2 248 2 127 0 223 0 82 2 172 3 1 1 8 0 163 3 11 3 194 1 104 2 124 3 182 3 255 1 228 0 175 1 153 3 102 1 187 0 159 1 30 3 59 2 26 3 11 3 230 3 255 3 106 1 46 0 112 2 185 2 241 1 2 0 95 2 76 3 80 1 46 0 110 1 223 3 116 1 101 0 129 1 101 3 83 1 170 0 153 0 213 3 34 2 0 0 181 0 106 2 238 2 109 0 217 0 80 2 166 2 236 1 1 0 94 2 83 3 88 1 50 0 111 2 2 3 131 1 113 0 133 1 130 3 93 1 183 0 157 0 235 3 41 2 10 0 185 0 114 2 242 2 117 0 220 0 81 2 183 2 254 1 7 0 96 2 108 3 100 1 55 0 113 2 69 3 157 1 128 0 139 1 140 3 97 1 182 0 157 0 231 3 40 2 6 0 183 0 106 2 237 2 112 0 218 0 80 2 169 2 243 1 3 0 95 2 87 3 90 1 52 0 112 2 4 3 132 1 115 0 134 1 137 3 96 1 185 0 158 1 8 3 51 2 20 0 188 0 126 2 251 2 128 0 223 0 83 2 186 3 4 1 10 0 97 2 106 3 105 1 60 0 115 2 13 3 136 1 120 0 136 1 156 3 102 1 193 0 160 1 24 3 57 2 27 0 190 0 125 2 250 2 130 0 224 0 82 2 170 2 250 1 6 0 96 2 105 3 106 1 61 0 115 2 29 3 143 1 126 0 138 2 15 3 143 1 223 0 171 2 31 3 148 2 94 1 34 3 61 3 245 3 68 2 253 3 228 3 255 3 239 1 101 0 132 2 125 3 98 1 53 0 112 2 14 3 133 1 109 0 132 1 162 3 105 1 182 0 157 1 26 3 58 2 14 0 187 0 102 2 233 2 97 0 213 0 79 2 165 2 226 0 253 0 93 2 84 3 82 1 47 0 110 1 239 3 122 1 106 0 131 1 124 3 92 1 182 0 156 0 242 3 44 2 30 0 191 0 117 2 244 2 201 0 246 0 90 2 184 3 169 1 99 0 129 2 112 3 176 1 217 0 170 2 30 3 148 2 63 0 204 1 177 3 111 2 181 0 242 1 46 3 66 3 67 1 31 0 169 3 13 3 173 1 87 1 68 3 75 3 119 3 242 3 255 3 255 3 255 2 88 0 216 2 192 3 199 1 138 2 146 3 190 3 255 2 49 0 201 1 27 3 58 1 239 0 176 0 127 2 251 2 82 2 80 3 169 3 255 3 197 1 218 3 133 3 255 3 255 1 173 3 99 3 255 3 255 1 207 2 172 3 200 3 255 2 27 0 194 1 19 3 56 1 222 0 171 0 120 2 247 2 54 0 199 0 74 2 177 2 172 0 236 0 87 2 74 3 28 1 20 0 100 1 229 3 100 1 74 0 120 1 109 3 86 1 137 0 141 0 223 3 37 1 216 0 168 0 101 2 235 2 55 0 199 0 74 2 167 2 181 0 239 0 88 2 84 3 43 1 26 0 103 1 241 3 108 1 81 0 122 1 126 3 92 1 146 0 145 0 240 3 43 1 222 0 170 0 110 2 241 2 63 0 202 0 75 2 173 2 185 0 240 0 88 2 91 3 54 1 31 0 104 2 17 3 121 1 88 0 124 1 145 3 99 1 153 0 147 1 2 3 49 1 232 0 173 0 118 2 246 2 71 0 205 0 76 2 179 2 192 0 243 0 89 2 99 3 58 1 33 0 105 2 3 3 115 1 85 0 123 1 144 3 98 1 153 0 147 1 7 3 51 1 232 0 174 0 124 2 250 2 75 0 206 0 77 2 184 2 200 0 245 0 90 2 105 3 65 1 36 0 106 2 13 3 122 1 92 0 126 1 155 3 102 1 160 0 149 1 19 3 55 1 241 0 176 0 134 3 1 2 84 0 209 0 79 2 191 2 211 0 249 0 91 2 111 3 77 1 42 0 108 1 250 3 118 1 94 0 126 1 143 3 98 1 159 0 149 1 23 3 56 1 244 0 178 0 134 3 1 2 89 0 211 0 78 2 175 2 203 0 246 0 90 2 95 3 66 1 38 0 107 2 1 3 120 1 95 0 126 1 148 3 100 1 164 0 151 1 7 3 51 2 1 0 182 0 128 2 252 2 198 0 246 0 91 2 194 3 143 1 76 0 121 2 118 3 176 1 149 0 146 2 32 3 149 1 221 0 171 1 173 3 109 1 171 0 153 1 36 3 61 1 254 0 181 0 150 3 8 2 105 0 216 0 84 2 200 2 237 1 1 0 94 2 126 3 89 1 48 0 111 2 34 3 133 1 102 0 129 1 169 3 107 1 168 0 152 1 23 3 57 1 249 0 179 0 136 3 1 2 94 0 212 0 79 2 188 2 218 0 251 0 92 2 110 3 68 1 39 0 107 2 27 3 131 1 101 0 129 1 175 3 109 1 170 0 153 1 43 3 63 1 249 0 179 0 144 3 6 2 103 0 215 0 83 2 198 2 223 0 253 0 93 2 124 3 87 1 48 0 111 2 42 3 134 1 101 0 129 1 215 3 123 1 177 0 155 1 82 3 77 2 2 0 182 0 184 3 24 2 104 0 216 0 93 2 218 2 231 0 255 0 94 2 142 3 87 1 47 0 110 2 53 3 139 1 104 0 130 1 196 3 117 1 174 0 154 1 58 3 69 2 0 0 181 0 157 3 12 2 98 0 214 0 83 2 200 2 224 0 253 0 93 2 127 3 134 1 81 0 122 2 41 3 152 1 253 0 181 1 204 3 120 2 178 0 240 1 88 3 80 3 36 1 20 0 198 3 28 3 58 1 29 0 112 2 218 3 182 1 106 0 132 2 147 3 89 1 48 0 111 2 44 3 134 1 100 0 129 1 207 3 121 1 173 0 154 1 78 3 76 2 6 0 184 0 172 3 19 2 122 0 222 0 93 2 217 2 229 0 255 0 93 2 150 3 86 1 46 0 110 2 63 3 142 1 104 0 130 1 215 3 123 1 172 0 153 1 87 3 78 1 254 0 181 0 191 3 26 2 104 0 216 0 92 2 217 2 225 0 254 0 93 2 143 3 84 1 46 0 110 2 54 3 137 1 101 0 129 1 215 3 123 1 170 0 153 1 94 3 81 1 255 0 181 0 204 3 31 2 103 0 215 0 101 2 227 2 235 1 1 0 94 2 156 3 88 1 47 0 111 2 69 3 144 1 106 0 131 1 223 3 126 1 174 0 154 1 100 3 83 2 4 0 183 0 208 3 32 2 105 0 216 0 102 2 229 2 232 1 0 0 94 2 158 3 84 1 45 0 110 2 71 3 142 1 104 0 130 1 225 3 127 1 172 0 153 1 104 3 85 2 0 0 182 0 212 3 34 2 102 0 215 0 104 2 231 2 230 0 255 0 93 2 160 3 87 1 46 0 110 2 73 3 143 1 104 0 130 1 229 3 128 1 172 0 154 1 109 3 86 1 254 0 181 0 217 3 36 2 98 0 214 0 105 2 232 2 224 0 254 0 93 2 161 3 85 1 45 0 110 2 78 3 143 1 101 0 129 1 231 3 129 1 169 0 153 1 110 3 87 1 251 0 180 0 224 3 38 2 96 0 213 0 110 2 237 2 226 0 254 0 93 2 167 3 88 1 47 0 110 2 90 3 148 1 104 0 131 1 245 3 133 1 173 0 154 1 126 3 92 2 1 0 182 0 225 3 38 2 101 0 215 0 108 2 235 2 227 0 254 0 93 2 165 3 84 1 45 0 110 2 93 3 149 1 105 0 131 1 249 3 135 1 176 0 155 1 95 3 81 1 247 0 179 0 238 3 43 2 99 0 214 0 126 2 249 2 229 0 255 0 93 2 181 3 88 1 46 0 110 2 93 3 147 1 102 0 129 1 244 3 133 1 168 0 152 1 124 3 92 1 245 0 178 0 234 3 42 2 88 0 211 0 112 2 239 2 215 0 250 0 92 2 171 3 82 1 44 0 109 2 91 3 144 1 100 0 129 1 249 3 135 1 167 0 152 1 131 3 94 1 244 0 178 0 253 3 48 2 90 0 212 0 128 2 250 2 217 0 251 0 92 2 185 3 83 1 44 0 109 2 102 3 147 1 100 0 128 2 7 3 140 1 168 0 152 1 150 3 101 1 249 0 180 1 14 3 54 2 96 0 213 0 133 2 253 2 221 0 252 0 92 2 182 3 80 1 42 0 109 2 103 3 147 1 99 0 128 2 6 3 139 1 167 0 152 1 137 3 96 1 243 0 178 0 246 3 45 2 85 0 210 0 120 2 245 2 209 0 249 0 91 2 177 3 73 1 39 0 107 2 95 3 140 1 94 0 127 2 0 3 137 1 160 0 149 1 140 3 98 1 241 0 177 1 1 3 49 2 84 0 209 0 126 2 250 2 206 0 248 0 91 2 182 3 70 1 38 0 107 2 102 3 141 1 93 0 126 2 7 3 139 1 158 0 149 1 149 3 100 1 240 0 177 1 13 3 53 2 81 0 208 0 130 2 252 2 203 0 247 0 90 2 185 3 68 1 36 0 106 2 106 3 141 1 92 0 126 2 12 3 142 1 158 0 149 1 155 3 102 1 238 0 176 1 37 3 62 2 86 0 210 0 151 3 8 2 209 0 249 0 92 2 193 3 70 1 37 0 107 2 111 3 141 1 92 0 126 2 16 3 143 1 157 0 148 1 159 3 104 1 237 0 176 1 24 3 57 2 76 0 207 0 138 3 1 2 197 0 245 0 90 2 192 3 65 1 35 0 106 2 113 3 140 1 90 0 125 2 19 3 144 1 154 0 147 1 165 3 105 1 231 0 174 1 27 3 58 2 71 0 205 0 143 3 4 2 191 0 243 0 90 2 194 3 59 1 32 0 105 2 117 3 136 1 85 0 124 2 24 3 145 1 150 0 146 1 168 3 107 1 228 0 173 1 36 3 61 2 67 0 204 0 146 3 6 2 185 0 241 0 90 2 198 3 56 1 31 0 105 2 119 3 136 1 85 0 123 2 28 3 146 1 149 0 146 1 175 3 109 1 228 0 173 1 43 3 64 2 68 0 204 0 151 3 9 2 186 0 241 0 91 2 200 3 57 1 31 0 105 2 123 3 137 1 85 0 124 2 35 3 149 1 149 0 146 1 200 3 118 1 233 0 174 1 79 3 76 2 71 0 206 0 182 3 22 2 188 0 242 0 97 2 214 3 59 1 31 0 105 2 139 3 140 1 84 0 123 2 51 3 154 1 148 0 145 1 197 3 118 1 225 0 172 1 50 3 66 2 58 0 201 0 158 3 12 2 172 0 237 0 91 2 205 3 45 1 26 0 103 2 135 3 132 1 79 0 121 2 47 3 151 1 143 0 144 1 199 3 117 1 218 0 169 1 71 3 73 2 52 0 199 0 175 3 20 2 171 0 237 0 95 2 214 3 46 1 26 0 103 2 141 3 133 1 79 0 121 2 54 3 155 1 145 0 144 1 206 3 120 1 221 0 170 1 77 3 75 2 57 0 201 0 179 3 22 2 163 0 235 0 93 2 210 3 39 1 23 0 102 2 134 3 126 1 74 0 120 2 44 3 149 1 136 0 141 1 194 3 116 1 214 0 168 1 65 3 71 2 47 0 197 0 174 3 19 2 167 0 236 0 95 2 214 3 32 1 20 0 101 2 139 3 125 1 72 0 119 2 51 3 151 1 136 0 141 1 201 3 118 1 207 0 165 1 74 3 74 2 46 0 197 0 181 3 22 2 155 0 232 0 95 2 216 3 32 1 20 0 101 2 141 3 124 1 71 0 119 2 56 3 152 1 133 0 140 1 206 3 120 1 208 0 166 1 80 3 77 2 40 0 195 0 186 3 24 2 154 0 232 0 98 2 219 3 26 1 18 0 100 2 147 3 121 1 69 0 118 2 59 3 152 1 131 0 140 1 212 3 122 1 207 0 166 1 94 3 81 2 42 0 196 0 212 3 34 2 158 0 234 0 110 2 234 3 30 1 20 0 101 2 162 3 125 1 70 0 118 2 78 3 158 1 132 0 140 1 234 3 130 1 207 0 166 1 114 3 88 2 37 0 194 0 223 3 38 2 152 0 231 0 111 2 235 3 28 1 18 0 100 2 165 3 126 1 70 0 119 2 78 3 158 1 131 0 139 1 220 3 125 1 200 0 163 1 90 3 80 2 30 0 191 0 193 3 27 2 140 0 227 0 101 2 225 3 10 1 12 0 98 2 151 3 114 1 64 0 116 2 66 3 150 1 122 0 136 1 220 3 125 1 194 0 161 1 97 3 82 2 26 0 190 0 205 3 32 2 137 0 226 0 105 2 230 3 7 1 11 0 97 2 157 3 112 1 62 0 116 2 74 3 153 1 121 0 136 1 228 3 128 1 193 0 161 1 109 3 86 2 24 0 190 0 218 3 36 2 125 0 222 0 107 2 233 3 3 1 9 0 97 2 162 3 108 1 59 0 115 2 78 3 152 1 118 0 135 1 234 3 130 1 187 0 159 1 114 3 88 2 21 0 189 0 226 3 39 2 130 0 224 0 110 2 236 3 1 1 8 0 97 2 166 3 106 1 57 0 114 2 84 3 150 1 112 0 133 1 235 3 130 1 182 0 157 1 121 3 90 2 12 0 186 0 231 3 41 2 117 0 220 0 114 2 240 2 248 1 5 0 96 2 170 3 99 1 53 0 112 2 86 3 152 1 113 0 133 1 245 3 133 1 182 0 157 1 126 3 93 2 11 0 186 0 238 3 43 2 113 0 219 0 117 2 242 2 243 1 4 0 95 2 174 3 97 1 52 0 112 2 91 3 150 1 110 0 132 1 249 3 135 1 179 0 156 1 131 3 94 2 8 0 184 0 247 3 46 2 112 0 218 0 121 2 245 2 240 1 3 0 95 2 177 3 95 1 50 0 112 2 96 3 151 1 109 0 132 1 255 3 137 1 178 0 156 1 139 3 97 2 5 0 183 1 2 3 50 2 109 0 218 0 126 2 249 2 234 1 1 0 94 2 183 3 93 1 49 0 111 2 102 3 151 1 106 0 131 2 6 3 140 1 174 0 154 1 163 3 105 2 2 0 183 1 20 3 56 2 102 0 215 0 132 2 253 2 224 0 254 0 93 2 187 3 83 1 44 0 109 2 109 3 147 1 100 0 129 2 16 3 143 1 166 0 152 1 164 3 106 1 246 0 179 1 34 3 61 2 87 0 210 0 147 3 6 2 211 0 250 0 93 2 199 3 75 1 39 0 108 2 123 3 146 1 95 0 127 2 35 3 150 3 42 3 242 3 255 3 255 2 166 0 240 1 93 3 82 2 78 0 208 0 156 3 11 2 184 2 187 3 205 3 255 3 255 1 124 0 139 2 140 3 133 1 77 0 121 2 31 3 145 1 135 0 141 1 180 3 111 1 209 0 166 1 51 3 66 2 48 0 198 0 161 3 13 2 161 0 234 0 91 2 207 3 31 1 20 0 101 2 134 3 123 1 70 0 119 2 47 3 150 1 133 0 140 1 200 3 118 1 205 0 165 1 78 3 76 2 42 0 196 0 185 3 24 2 157 0 232 0 110 2 233 3 36 1 21 0 101 2 173 3 165 3 228 3 255 3 255 3 255 3 240 3 255 3 255 3 255 2 106 0 222 1 118 3 91 2 26 0 191 0 191 3 26 2 128 0 224 0 98 2 221 3 1 1 8 0 97 2 149 3 109 1 59 0 115 2 64 3 150 1 118 0 135 1 222 3 126 1 187 0 159 1 101 3 83 2 22 0 189 0 208 3 33 2 129 0 224 0 104 2 228 3 0 1 8 0 97 2 158 3 109 1 58 0 114 2 75 3 153 1 116 0 135 1 233 3 129 3 54 3 246 3 255 3 255 2 203 0 252 0 252 3 49 2 115 0 220 0 108 2 233 2 238 1 2 0 94 2 160 3 95 1 49 0 111 2 73 3 146 1 105 0 131 1 231 3 128 1 175 0 155 1 108 3 86 1 254 0 181 0 224 3 38 2 106 0 217 0 112 2 237 2 233 1 0 0 94 2 169 3 87 1 45 0 110 2 89 3 149 1 104 0 130 1 246 3 134 1 175 0 155 1 135 3 95 2 3 0 183 0 253 3 48 2 105 0 216 0 124 2 247 2 226 0 254 0 93 2 178 3 93 1 47 0 111 2 90 3 150 1 105 0 131 1 255 3 137 1 173 0 154 1 130 3 94 1 252 0 181 0 244 3 45 2 101 0 215 0 118 2 243 2 227 0 254 0 93 2 172 3 89 1 45 0 110 2 87 3 146 1 101 0 129 1 240 3 132 1 169 0 153 1 123 3 91 1 246 0 178 0 233 3 41 2 96 0 213 0 112 2 238 2 222 0 253 0 93 2 168 3 86 1 45 0 110 2 85 3 145 1 100 0 128 1 246 3 134 1 162 0 150 1 121 3 90 1 242 0 177 0 229 3 40 2 86 0 210 0 110 2 237 2 211 0 249 0 91 2 167 3 76 1 40 0 108 2 85 3 140 1 94 0 127 1 241 3 132 1 160 0 149 1 122 3 91 1 240 0 176 0 232 3 41 2 81 0 208 0 112 2 239 2 204 0 247 0 91 2 172 3 71 1 37 0 107 2 87 3 139 1 92 0 126 1 246 3 134 1 157 0 148 1 129 3 94 1 239 0 176 0 246 3 46 2 81 0 209 0 118 2 244 2 197 0 245 0 90 2 172 3 65 1 35 0 106 2 95 3 138 1 90 0 125 1 254 3 137 1 158 0 148 1 141 3 97 1 239 0 176 1 2 3 50 2 79 0 208 0 125 2 249 2 199 0 246 0 90 2 183 3 70 1 37 0 107 2 103 3 140 1 90 0 125 2 8 3 140 1 155 0 148 1 151 3 101 1 233 0 174 1 15 3 54 2 73 0 206 0 133 2 254 2 192 0 243 0 90 2 187 3 61 1 32 0 105 2 108 3 136 1 85 0 124 2 14 3 142 1 149 0 146 1 156 3 103 1 229 0 173 1 20 3 56 2 68 0 204 0 138 3 1 2 187 0 242 0 89 2 193 3 59 1 31 0 105 2 116 3 136 1 84 0 123 2 20 3 144 1 148 0 145 1 165 3 106 1 225 0 172 1 32 3 60 2 64 0 203 0 145 3 5 2 182 0 240 0 90 2 197 3 55 1 29 0 104 2 119 3 134 1 82 0 122 2 28 3 147 1 147 0 145 1 174 3 109 1 222 0 171 1 45 3 65 2 62 0 202 0 158 3 12 2 177 0 239 0 91 2 202 3 49 1 27 0 103 2 126 3 132 1 79 0 121 2 35 3 148 1 140 0 143 1 183 3 112 1 217 0 169 1 55 3 68 2 54 0 199 0 161 3 13 2 167 0 236 0 92 2 207 3 42 1 24 0 102 2 132 3 129 1 75 0 120 2 43 3 150 1 138 0 142 1 193 3 115 1 213 0 167 1 65 3 72 2 50 0 198 0 175 3 19 2 161 0 234 0 94 2 212 3 36 1 22 0 102 2 139 3 129 1 74 0 120 2 51 3 152 1 135 0 141 1 201 3 118 1 211 0 167 1 74 3 75 2 45 0 197 0 184 3 24 2 157 0 233 0 98 2 219 3 28 1 19 0 100 2 146 3 123 1 69 0 118 2 60 3 153 1 129 0 139 1 213 3 122 1 199 0 163 1 84 3 78 2 34 0 193 0 193 3 27 2 144 0 229 0 100 2 223 3 21 1 16 0 99 2 151 3 118 1 65 0 117 2 65 3 153 1 126 0 137 1 218 3 124 1 197 0 162 1 97 3 82 2 30 0 192 0 207 3 32 2 138 0 227 0 104 2 229 3 12 1 12 0 98 2 158 3 114 1 62 0 116 2 73 3 154 1 123 0 137 1 228 3 128 1 194 0 161 1 109 3 86 2 24 0 190 0 218 3 36 2 130 0 224 0 109 2 234 3 4 1 10 0 97 2 163 3 109 1 59 0 114 2 80 3 154 1 117 0 135 1 239 3 132 1 188 0 159 1 119 3 90 2 16 0 187 0 233 3 42 2 126 0 223 0 116 2 240 2 250 1 6 0 96 2 171 3 101 1 53 0 112 2 89 3 153 1 112 0 133 1 248 3 135 1 182 0 157 1 132 3 95 2 8 0 184 0 243 3 45 2 115 0 220 0 122 2 245 2 242 1 3 0 95 2 177 3 98 1 51 0 112 2 96 3 153 1 109 0 132 1 255 3 137 1 174 0 154 1 141 3 98 2 6 0 184 1 8 3 51 2 109 3 114 3 255 3 255 3 209 3 93 3 255 3 255 3 255 1 157 2 69 3 140 3 253 1 138 0 144 2 7 3 140 1 151 0 147 1 134 3 95 1 229 0 173 0 249 3 47 2 66 0 203 0 118 2 244 2 184 0 241 0 89 2 176 3 51 1 28 0 104 2 95 3 128 1 80 0 122 1 255 3 137 1 147 0 145 1 143 3 98 1 223 0 171 1 7 3 51 2 61 0 202 0 129 2 251 2 178 0 239 0 88 2 185 3 50 1 27 0 103 2 106 3 129 1 79 0 121 2 13 3 141 1 142 0 143 1 155 3 102 1 222 0 170 1 24 3 57 2 57 0 200 0 138 3 1 2 173 0 237 0 88 2 192 3 46 1 26 0 103 2 114 3 127 1 76 0 121 2 24 3 144 1 141 0 143 1 169 3 107 1 214 0 168 1 35 3 61 2 53 0 199 0 150 3 8 2 164 0 235 0 89 2 199 3 39 1 23 0 102 2 125 3 124 1 72 0 119 2 35 3 147 2 130 3 189 3 255 3 255 2 224 3 210 3 255 3 255 2 243 3 139 3 255 3 255 3 113 2 45 3 160 3 255 3 218 1 110 3 67 3 249 3 255 1 146 2 124 3 183 3 255 1 186 0 161 2 3 3 139 1 184 0 158 1 45 3 64 1 249 0 180 0 138 3 2 2 86 0 210 0 79 2 186 2 206 0 247 0 91 2 107 3 69 1 38 0 107 2 14 3 123 1 91 0 126 1 160 3 104 1 160 0 149 1 28 3 58 1 239 0 176 0 142 3 4 2 82 0 208 0 80 2 195 2 204 0 246 0 90 2 122 3 63 1 34 0 106 2 28 3 127 1 94 0 127 1 176 3 110 1 160 0 149 1 49 3 65 1 239 0 176 0 159 3 13 2 81 0 208 0 85 2 207 2 204 0 247 0 90 2 132 3 66 1 36 0 106 2 44 3 128 1 89 0 125 1 196 3 116 1 154 0 147 1 68 3 72 1 238 0 176 0 177 3 21 2 80 0 208 0 89 2 214 2 200 0 245 0 90 2 143 3 63 1 34 0 105 2 57 3 132 1 91 0 126 1 210 3 121 1 151 0 146 1 87 3 78 1 232 0 174 0 201 3 30 2 77 0 207 0 103 2 231 2 203 0 247 0 90 2 160 3 70 1 36 0 106 2 67 3 132 1 88 0 125 1 221 3 125 1 153 0 147 1 98 3 82 1 230 0 173 0 209 3 33 2 73 0 206 0 101 2 230 2 191 0 243 0 89 2 160 3 59 1 31 0 105 2 75 3 131 1 86 0 123 1 231 3 129 1 150 0 146 1 114 3 88 1 229 0 173 0 230 3 40 2 69 0 204 0 109 2 236 2 188 0 242 0 89 2 169 3 57 1 31 0 104 2 86 3 132 1 84 0 123 1 244 3 133 1 149 0 145 1 128 3 93 1 225 0 171 0 243 3 44 2 63 0 203 0 117 2 243 2 180 0 239 0 88 2 176 3 52 1 28 0 104 2 95 3 130 1 82 0 122 2 0 3 137 1 144 0 144 1 141 3 97 1 222 0 170 1 4 3 50 2 61 0 202 0 127 2 250 2 178 0 239 0 88 2 184 3 48 1 27 0 103 2 104 3 129 1 79 0 121 2 10 3 141 1 142 0 143 1 154 3 102 1 220 0 170 1 20 3 56 2 55 0 200 0 137 3 1 2 171 0 237 0 88 2 191 3 43 1 24 0 102 2 113 3 128 1 77 0 121 2 20 3 143 1 140 0 143 1 167 3 107 1 215 0 168 1 33 3 60 2 51 0 199 0 148 3 7 2 162 0 234 0 88 2 197 3 36 1 21 0 101 2 121 3 126 1 74 0 120 2 30 3 145 1 135 0 141 1 177 3 110 1 210 0 167 1 48 3 65 2 47 0 197 0 159 3 12 2 156 0 232 0 90 2 204 3 29 1 18 0 100 2 131 3 123 1 70 0 118 2 38 3 147 1 131 0 139 1 189 3 114 1 204 0 164 1 61 3 70 2 39 0 194 0 170 3 17 2 150 0 230 0 93 2 212 3 24 1 17 0 100 2 138 3 119 1 67 0 117 2 50 3 149 1 127 0 138 1 199 3 118 1 200 0 163 1 74 3 75 2 31 0 192 0 184 3 24 2 141 0 228 0 96 2 218 3 15 1 13 0 98 2 146 3 114 1 63 0 116 2 59 3 150 1 123 0 137 1 212 3 122 1 194 0 161 1 91 3 80 2 26 0 190 0 196 3 29 2 132 0 225 0 100 2 224 3 5 1 10 0 97 2 152 3 110 1 60 0 115 2 69 3 151 1 118 0 135 1 221 3 125 1 187 0 159 1 101 3 84 2 17 0 188 0 211 3 34 2 120 0 221 0 105 2 231 2 250 1 6 0 96 2 160 3 99 1 53 0 112 2 77 3 150 1 112 0 133 1 233 3 129 1 183 0 157 1 112 3 87 2 11 0 186 0 228 3 40 2 116 0 220 0 111 2 237 2 248 1 5 0 95 2 168 3 101 1 53 0 112 2 87 3 152 1 111 0 132 1 244 3 133 1 182 0 157 1 129 3 94 2 9 0 185 0 245 3 45 2 106 0 216 0 120 2 244 2 231 0 255 0 93 2 176 3 94 1 49 0 111 2 97 3 148 1 102 0 129 1 254 3 137 1 169 0 153 1 139 3 97 1 250 0 180 1 1 3 49 2 95 0 213 0 124 2 248 2 221 0 253 0 92 2 181 3 80 1 42 0 109 2 102 3 147 1 99 0 128 2 8 3 140 1 168 0 152 1 151 3 101 1 247 0 179 1 16 3 54 2 91 0 212 0 136 2 255 2 213 0 250 0 92 2 189 3 78 1 40 0 108 2 112 3 145 1 94 0 127 2 18 3 143 1 160 0 150 1 162 3 105 1 239 0 176 1 29 3 59 2 80 0 208 0 145 3 5 2 193 0 244 0 91 2 195 3 66 1 34 0 106 2 118 3 142 1 89 0 125 2 26 3 146 1 156 0 148 1 173 3 109 1 236 0 175 1 44 3 64 2 70 0 205 0 155 3 10 2 192 0 244 0 92 2 202 3 58 1 31 0 105 2 126 3 138 1 84 0 123 2 37 3 150 1 149 0 146 1 186 3 113 1 228 0 173 1 57 3 69 2 65 0 204 0 166 3 16 2 177 0 239 0 93 2 208 3 51 1 27 0 104 2 133 3 137 1 82 0 122 2 46 3 152 1 144 0 144 1 196 3 117 1 215 0 168 1 69 3 73 2 56 0 200 0 178 3 21 2 170 0 237 0 97 2 216 3 39 1 23 0 102 2 142 3 127 1 73 0 119 2 54 3 153 1 138 0 142 1 208 3 121 1 212 0 167 1 84 3 78 2 45 0 196 0 189 3 26 2 158 0 233 0 99 2 221 3 33 1 20 0 101 2 150 3 125 1 70 0 118 2 64 3 155 1 132 0 140 1 220 3 125 2 149 3 196 3 255 3 255 3 25 3 214 3 255 3 255 3 111 1 49 0 136 2 242 3 4 1 9 0 97 2 149 3 101 1 54 0 113 2 56 3 143 1 108 0 132 1 206 3 120 1 178 0 156 1 83 3 77 2 7 0 184 0 193 3 27 2 110 0 218 0 97 2 222 2 237 1 1 0 94 2 152 3 93 1 49 0 111 2 69 3 145 1 106 0 131 1 244 3 133 1 180 0 156 1 169 3 107 2 25 3 110 3 255 3 255 3 70 2 229 3 220 3 255 3 191 1 156 3 106 3 255 3 255 1 120 0 138 2 160 3 169 1 103 0 131 1 239 3 132 1 152 0 146 1 117 3 89 1 227 0 172 0 229 3 40 2 68 0 204 0 108 2 236 2 183 0 241 0 88 2 166 3 53 1 29 0 104 2 83 3 130 1 81 0 123 1 240 3 132 1 145 0 144 1 123 3 91 1 221 0 170 0 238 3 43 2 61 0 202 0 114 2 241 2 177 0 239 0 87 2 172 3 48 1 27 0 103 2 92 3 128 1 79 0 122 1 249 3 134 1 139 0 142 1 133 3 95 1 217 0 169 0 246 3 46 2 55 0 200 0 119 2 245 2 169 0 236 0 87 2 178 3 38 1 22 0 102 2 97 3 124 1 75 0 120 2 2 3 137 1 137 0 142 1 144 3 99 1 206 0 165 1 4 3 50 2 46 0 197 0 126 2 250 2 160 0 233 0 86 2 186 3 29 1 19 0 100 2 106 3 119 1 70 0 118 2 12 3 139 1 131 0 140 1 157 3 103 1 207 0 165 1 21 3 56 2 41 0 195 0 137 3 1 2 152 0 231 0 86 2 192 3 27 1 18 0 100 2 116 3 118 1 67 0 118 2 25 3 143 1 131 0 139 1 171 3 108 1 202 0 163 1 40 3 63 2 40 0 195 0 153 3 9 2 148 0 230 0 87 2 200 3 22 1 16 0 99 2 126 3 118 1 67 0 117 2 35 3 145 1 128 0 138 1 185 3 113 1 199 0 163 1 55 3 68 2 33 0 192 0 164 3 15 2 142 0 228 0 90 2 208 3 17 1 14 0 99 2 133 3 115 1 64 0 116 2 45 3 147 1 124 0 137 1 194 3 116 1 196 0 162 1 67 3 72 2 23 0 189 0 176 3 20 2 133 0 225 0 92 2 212 3 8 1 11 0 97 2 141 3 110 1 61 0 115 2 52 3 147 1 120 0 136 1 203 3 119 1 191 0 160 1 75 3 75 2 21 0 189 0 183 3 23 2 129 0 224 0 94 2 217 2 254 1 7 0 96 2 143 3 103 1 56 0 114 2 58 3 147 1 115 0 134 1 209 3 121 1 185 0 158 1 88 3 79 2 15 0 187 0 202 3 30 2 123 0 222 0 103 2 229 2 255 1 8 0 97 2 158 3 105 1 56 0 113 2 74 3 151 1 114 0 134 1 229 3 128 1 184 0 158 1 110 3 87 2 12 0 186 0 218 3 36 2 116 0 220 0 108 2 234 2 243 1 4 0 95 2 163 3 98 1 51 0 112 2 81 3 148 1 107 0 131 1 238 3 131 1 178 0 156 1 121 3 91 2 5 0 183 0 233 3 41 2 110 0 218 0 115 2 240 2 236 1 1 0 94 2 171 3 94 1 49 0 111 2 90 3 150 1 106 0 131 1 247 3 134 1 174 0 154 1 128 3 93 1 254 0 181 0 237 3 43 2 96 0 213 0 115 2 240 2 223 0 253 0 93 2 174 3 86 1 45 0 110 2 93 3 146 1 100 0 129 1 250 3 135 1 167 0 152 1 136 3 96 1 246 0 179 0 252 3 47 2 89 0 211 0 123 2 247 2 212 0 250 0 92 2 180 3 78 1 41 0 108 2 100 3 144 1 96 0 127 2 5 3 139 1 163 0 150 1 149 3 100 1 243 0 177 1 13 3 53 2 86 0 210 0 132 2 253 2 206 0 248 0 91 2 188 3 71 1 37 0 107 2 110 3 142 1 91 0 126 2 16 3 143 1 158 0 149 1 162 3 105 1 238 0 176 1 28 3 58 2 77 0 207 0 144 3 4 2 197 0 245 0 91 2 194 3 63 1 33 0 106 2 118 3 140 1 87 0 124 2 25 3 146 1 152 0 146 1 173 3 109 1 231 0 173 1 43 3 64 2 72 0 205 0 154 3 9 2 188 0 242 0 92 2 202 3 54 1 29 0 104 2 125 3 137 1 83 0 123 2 35 3 149 1 148 0 145 1 184 3 112 1 223 0 171 1 56 3 68 2 63 0 203 0 165 3 15 2 177 0 239 0 94 2 210 3 50 1 27 0 103 2 135 3 131 1 77 0 121 2 45 3 151 1 139 0 142 1 195 3 116 1 215 0 168 1 69 3 72 2 50 0 198 0 177 3 20 2 166 0 236 0 95 2 215 3 37 1 22 0 102 2 141 3 130 1 76 0 120 2 54 3 153 1 137 0 142 1 206 3 120 1 210 0 166 1 83 3 77 2 45 0 197 0 192 3 27 2 154 0 232 0 100 2 222 3 26 1 18 0 100 2 151 3 123 1 68 0 118 2 64 3 154 1 128 0 138 1 218 3 124 1 197 0 162 1 93 3 81 2 32 0 192 0 200 3 30 2 144 0 229 0 103 2 227 3 20 1 15 0 99 2 157 3 114 1 62 0 116 2 73 3 155 1 125 0 138 1 227 3 128 1 198 0 162 1 109 3 86 2 29 0 192 0 220 3 37 2 136 0 226 0 108 2 233 3 4 1 9 0 97 2 163 3 112 1 61 0 115 2 82 3 156 1 121 0 136 1 240 3 132 1 190 0 160 1 123 3 91 2 18 0 188 0 236 3 42 2 124 0 222 0 118 2 242 2 251 1 6 0 96 2 176 3 106 2 145 3 193 3 255 3 255 1 224 2 63 3 19 3 234 1 222 0 173 1 155 3 103 2 5 0 184 1 9 3 52 2 104 0 216 0 130 2 252 2 229 0 255 0 94 2 184 3 88 1 45 0 110 2 105 3 151 1 102 0 129 2 9 3 141 1 168 0 152 1 152 3 101 1 250 0 180 1 17 3 55 2 94 0 213 0 138 3 1 2 212 0 250 0 92 2 189 3 79 1 40 0 108 2 110 3 147 1 97 0 127 2 16 3 143 1 162 0 150 1 160 3 104 1 243 0 178 1 30 3 60 2 87 0 211 0 143 3 4 2 212 0 250 0 93 2 196 3 75 1 38 0 107 2 118 3 147 1 94 0 127 2 27 3 147 1 157 0 148 1 174 3 109 1 235 0 175 1 41 3 63 2 76 0 207 0 151 3 8 2 193 0 244 0 92 2 200 3 66 1 34 0 106 2 117 3 139 1 87 0 124 2 20 3 144 1 149 0 146 1 161 3 105 1 225 0 171 1 25 3 58 2 60 0 202 0 142 3 3 2 176 0 238 0 89 2 195 3 48 1 27 0 103 2 118 3 132 1 80 0 122 2 29 3 146 1 143 0 144 1 175 3 109 1 219 0 170 1 46 3 65 2 56 0 200 0 159 3 12 2 171 0 237 0 91 2 204 3 42 1 24 0 102 2 130 3 129 1 76 0 121 2 42 3 150 1 137 0 142 1 192 3 115 1 213 0 167 1 65 3 71 2 48 0 198 0 172 3 18 2 161 0 234 0 94 2 213 3 35 1 21 0 101 2 139 3 127 1 73 0 119 2 53 3 152 1 135 0 141 1 205 3 120 1 209 0 166 1 80 3 76 2 45 0 197 0 187 3 25 2 155 0 232 0 99 2 221 3 28 1 18 0 100 2 149 3 123 1 69 0 118 2 62 3 153 1 129 0 139 1 217 3 124 1 205 0 164 1 96 3 82 2 37 0 194 0 204 3 31 2 143 0 228 0 104 2 228 3 15 1 13 0 99 2 159 3 115 1 63 0 116 2 131 3 178 1 139 0 143 1 228 3 128 1 194 0 161 1 103 3 84 2 24 0 190 0 215 3 35 2 133 0 225 0 106 2 231 3 10 1 12 0 98 2 160 3 109 1 59 0 114 2 78 3 154 1 118 0 135 1 234 3 130 1 188 0 159 1 116 3 89 2 19 0 188 0 227 3 39 2 124 0 222 0 113 2 238 2 251 1 6 0 96 2 167 3 104 1 56 0 114 2 86 3 153 1 113 0 133 1 244 3 133 1 184 0 157 1 129 3 93 2 14 0 187 0 246 3 46 2 115 0 219 0 121 2 244 2 244 1 4 0 95 2 177 3 98 1 51 0 112 2 99 3 154 1 122 1 61 2 168 3 196 1 207 0 166 1 153 3 102 2 2 0 183 1 14 3 54 2 101 0 215 0 128 2 250 2 224 0 254 0 93 2 182 3 82 1 43 0 109 2 100 3 145 1 97 0 128 2 4 3 139 1 167 0 152 1 144 3 99 1 247 0 179 1 11 3 53 2 92 0 212 0 132 2 253 2 211 0 249 0 92 2 187 3 78 1 40 0 108 2 108 3 146 1 97 0 127 2 16 3 143 1 162 0 150 1 161 3 104 1 240 0 177 1 27 3 58 2 87 0 210 0 145 3 5 2 200 0 246 0 91 2 195 3 67 1 35 0 106 2 118 3 144 1 91 0 126 2 39 3 151 1 162 0 150 1 186 3 113 1 241 0 177 1 51 3 66 2 81 0 209 0 160 3 13 2 198 0 245 0 93 2 204 3 67 1 35 0 106 2 128 3 142 1 87 0 124 2 36 3 149 2 43 3 161 3 255 3 255 2 143 0 233 1 93 3 82 2 64 2 246 3 224 3 255 3 144 2 99 3 178 3 255 3 250 1 122 3 65 3 248 3 255 1 129 3 6 3 229 3 255 1 217 0 172 1 182 3 112 1 189 0 160 1 34 3 60 2 14 0 187 0 160 3 13 2 126 0 223 0 90 2 209 3 4 1 9 2 244 3 222 3 255 1 140 0 144 2 56 3 148 1 117 0 135 1 192 3 115 1 184 0 158 1 64 3 71 2 11 0 186 0 174 3 19 2 113 0 219 0 91 2 213 2 244 1 3 0 95 2 138 3 98 1 52 0 112 2 50 3 143 1 110 0 132 1 201 3 118 1 182 0 157 1 76 3 75 2 8 0 185 0 184 3 24 2 111 0 218 0 94 2 218 2 240 1 2 0 94 2 144 3 96 1 50 0 112 2 59 3 142 1 106 0 131 1 214 3 123 1 173 0 154 1 87 3 79 2 2 0 182 0 197 3 29 2 106 0 216 0 100 2 226 2 231 0 255 0 93 2 153 3 89 1 47 0 110 2 71 3 143 1 101 0 129 1 224 3 126 1 170 0 153 1 105 3 85 1 253 0 181 0 217 3 36 2 101 0 215 0 107 2 233 2 220 0 252 0 92 2 164 3 83 1 43 0 109 2 81 3 144 1 99 0 129 1 237 3 131 1 166 0 152 1 120 3 90 1 248 0 179 0 235 3 42 2 91 0 212 0 117 2 242 2 216 0 251 0 92 2 172 3 78 1 40 0 108 2 90 3 142 1 95 0 127 1 249 3 135 1 162 0 150 1 135 3 95 1 241 0 177 0 252 3 48 2 83 0 209 0 124 2 248 2 203 0 247 0 90 2 180 3 70 1 36 0 107 2 103 3 143 1 92 0 126 2 7 3 140 1 157 0 148 1 151 3 101 1 235 0 175 1 16 3 54 2 75 0 206 0 135 2 255 2 198 0 245 0 91 2 189 3 65 1 34 0 105 2 112 3 140 1 87 0 124 2 22 3 145 1 152 0 147 1 168 3 107 1 230 0 173 1 35 3 61 2 69 0 205 0 148 3 6 2 187 0 242 0 91 2 198 3 57 1 30 0 104 2 123 3 138 1 84 0 123 2 33 3 148 1 145 0 144 1 178 3 110 1 223 0 171 1 49 3 66 2 59 0 201 0 159 3 12 2 178 0 239 0 93 2 206 3 50 1 27 0 103 2 132 3 135 1 79 0 122 2 43 3 151 1 143 0 144 1 190 3 115 1 220 0 170 1 64 3 71 2 53 0 199 0 174 3 19 2 170 0 236 0 96 2 214 3 43 1 24 0 102 2 140 3 131 1 75 0 120 2 52 3 153 1 136 0 142 1 202 3 119 1 209 0 166 1 78 3 76 2 41 0 195 0 183 3 23 2 153 0 231 0 97 2 218 3 27 1 18 0 100 2 144 3 123 1 69 0 118 2 60 3 154 1 130 0 139 1 214 3 123 1 202 0 164 1 91 3 80 2 35 0 193 0 197 3 29 2 145 0 229 0 102 2 225 3 20 1 15 0 99 2 154 3 119 1 65 0 117 2 70 3 155 1 126 0 138 1 222 3 126 1 197 0 162 1 99 3 83 2 28 0 191 0 208 3 33 2 137 0 227 0 107 2 231 3 13 1 12 0 98 2 163 3 117 1 63 0 116 2 78 3 157 1 125 0 137 1 238 3 131 1 195 0 161 1 120 3 91 2 25 0 190 0 233 3 42 2 127 0 223 0 115 2 240 3 2 1 8 0 97 2 171 3 108 1 57 0 114 2 90 3 155 1 114 0 134 1 248 3 135 1 183 0 157 1 132 3 95 2 10 0 185 0 250 3 47 2 116 0 220 0 123 2 246 2 242 1 3 0 95 2 177 3 93 1 48 0 111 2 96 3 151 1 106 0 131 2 1 3 138 1 180 0 156 1 144 3 99 2 4 0 183 1 6 3 51 2 103 0 215 0 128 2 250 2 237 1 2 0 94 2 184 3 95 1 49 0 111 2 107 3 154 1 106 0 131 2 14 3 142 1 170 0 153 1 155 3 102 1 253 0 181 1 20 3 56 2 99 0 214 0 138 3 1 2 227 0 255 0 94 2 193 3 88 1 44 0 110 2 115 3 152 1 100 0 129 2 23 3 145 1 165 0 151 1 166 3 107 1 244 0 178 1 35 3 61 2 89 0 211 0 151 3 8 2 206 0 248 0 93 2 198 3 78 1 40 0 108 2 122 3 147 1 93 0 126 2 32 3 149 1 159 0 149 1 179 3 111 1 236 0 175 1 50 3 66 2 79 0 208 0 160 3 13 2 202 0 247 0 95 2 207 3 71 1 37 0 107 2 132 3 146 1 90 0 125 2 44 3 153 1 157 0 148 1 193 3 116 1 233 0 174 1 64 3 71 2 66 0 204 0 170 3 17 2 190 0 243 0 96 2 211 3 63 1 32 0 105 2 138 3 142 1 85 0 124 2 51 3 155 1 150 0 146 1 201 3 119 1 226 0 172 1 73 3 74 2 63 0 203 0 184 3 23 2 177 0 239 0 98 2 217 3 51 1 27 0 103 2 135 3 132 1 77 0 121 2 46 3 152 1 140 0 142 1 180 3 111 1 210 0 166 1 44 3 64 2 43 0 196 0 154 3 11 2 155 0 232 0 89 2 202 3 30 1 19 0 101 2 127 3 120 1 70 0 118 2 39 3 147 1 132 0 140 1 188 3 114 1 205 0 165 1 61 3 70 2 35 0 193 0 169 3 17 2 147 0 229 0 92 2 211 3 26 1 18 0 100 2 138 3 120 1 68 0 118 2 51 3 150 1 128 0 138 1 205 3 119 1 200 0 163 1 80 3 76 2 34 0 193 0 188 3 25 2 143 0 228 0 98 2 220 3 15 1 13 0 98 2 148 3 112 1 62 0 116 2 64 3 152 1 123 0 137 1 217 3 124 1 194 0 161 1 94 3 81 2 26 0 190 0 203 3 31 2 136 0 226 0 103 2 227 3 8 1 11 0 97 2 158 3 110 1 60 0 115 2 73 3 152 1 119 0 136 1 228 3 128 1 190 0 160 1 110 3 87 2 17 0 187 0 220 3 37 2 126 0 223 0 109 2 234 3 0 1 8 0 97 2 166 3 105 1 56 0 113 2 81 3 152 1 114 0 134 1 239 3 132 1 187 0 159 1 123 3 91 2 13 0 186 0 235 3 42 2 117 0 220 0 115 2 240 2 245 1 4 0 95 2 172 3 98 1 52 0 112 2 91 3 152 1 110 0 132 1 251 3 136 1 179 0 156 1 133 3 95 2 6 0 184 0 251 3 47 2 109 0 217 0 124 2 247 2 235 1 1 0 94 2 181 3 91 3 5 3 229 3 255 3 255 3 98 3 255 3 255 3 255 2 217 3 221 3 255 3 255 2 170 3 164 3 255 3 255 3 19 3 109 3 255 3 255 3 158 3 111 3 255 3 255 3 255 1 204 3 125 3 255 3 255 1 172 3 32 3 238 3 255 1 242 2 173 3 200 3 255 2 71 0 209 0 254 3 49 2 9 1 45 3 5 3 227 2 224 1 61 3 68 3 248 3 195 1 80 0 124 2 120 3 97 1 51 0 112 1 231 3 118 1 97 0 128 1 195 3 116 1 184 0 158 0 222 3 37 1 244 0 178 0 97 2 230 2 86 0 209 0 78 2 158 2 211 0 249 0 91 2 72 3 65 1 38 0 107 1 225 3 113 1 92 0 126 1 107 3 85 1 159 0 149 0 219 3 36 1 240 0 176 0 104 2 236 2 86 0 209 0 77 2 164 2 208 0 248 0 91 2 80 3 68 1 39 0 107 1 241 3 118 1 95 0 127 1 125 3 92 1 162 0 150 0 241 3 43 1 242 0 177 0 113 2 243 2 86 0 210 0 77 2 176 2 211 0 248 0 91 2 95 3 68 1 38 0 107 2 2 3 122 1 95 0 127 1 146 3 99 1 160 0 149 1 10 3 52 1 242 0 177 0 129 2 253 2 82 0 208 0 78 2 188 2 209 0 248 0 91 2 110 3 70 1 38 0 107 2 18 3 124 1 91 0 126 1 164 3 105 1 158 0 148 1 33 3 59 1 238 0 176 0 145 3 6 2 76 0 206 0 80 2 197 2 198 0 245 0 90 2 120 3 66 1 36 0 106 2 31 3 128 1 93 0 126 1 182 3 111 1 160 0 149 1 53 3 67 1 240 0 176 0 163 3 14 2 82 0 208 0 86 2 209 2 205 0 247 0 90 2 136 3 69 1 37 0 107 2 48 3 130 1 90 0 125 1 195 3 116 1 156 0 148 1 75 3 74 1 237 0 175 0 183 3 23 2 78 0 207 0 91 2 217 2 195 0 244 0 89 2 146 3 64 1 35 0 106 2 60 3 130 1 88 0 125 1 214 3 123 1 153 0 147 1 91 3 80 1 231 0 173 0 199 3 29 2 70 0 205 0 97 2 226 2 184 0 240 0 88 2 155 3 56 1 31 0 104 2 70 3 129 1 84 0 123 1 227 3 127 1 149 0 146 1 109 3 87 1 221 0 170 0 216 3 36 2 67 0 203 0 105 2 234 2 185 0 241 0 88 2 165 3 55 1 30 0 105 2 82 3 131 1 84 0 123 1 241 3 132 1 147 0 145 1 124 3 91 1 226 0 172 0 238 3 43 2 65 0 203 0 115 2 242 2 180 0 240 0 88 2 174 3 52 1 28 0 104 2 93 3 127 1 78 0 121 1 252 3 136 1 141 0 143 1 137 3 96 1 215 0 168 0 254 3 48 2 58 0 201 0 123 2 248 2 170 0 237 0 87 2 181 3 43 1 25 0 102 2 100 3 127 1 77 0 121 2 5 3 139 1 141 0 143 1 148 3 100 1 216 0 169 1 13 3 53 2 48 0 198 0 133 2 254 2 162 0 234 0 86 2 189 3 36 1 21 0 101 2 110 3 125 1 74 0 120 2 16 3 141 1 136 0 141 1 161 3 104 1 211 0 167 1 27 3 58 2 49 0 198 0 143 3 4 2 159 0 233 0 87 2 196 3 31 1 20 0 100 2 118 3 123 1 71 0 119 2 26 3 144 1 133 0 140 1 172 3 108 1 207 0 166 1 40 3 63 2 42 0 196 0 154 3 10 2 153 0 231 0 88 2 202 3 30 1 19 0 100 2 128 3 121 1 69 0 118 2 36 3 146 1 129 0 139 1 186 3 113 1 204 0 164 1 57 3 68 2 37 0 194 0 166 3 16 2 147 0 229 0 91 2 210 3 25 1 17 0 100 2 137 3 118 1 66 0 117 2 48 3 149 1 127 0 138 1 198 3 117 1 199 0 163 1 71 3 73 2 30 0 192 0 178 3 21 2 140 0 227 0 95 2 216 3 14 1 13 0 98 2 142 3 113 1 62 0 116 2 55 3 149 1 123 0 137 1 208 3 121 1 195 0 162 1 84 3 78 2 26 0 190 0 194 3 28 2 134 0 226 0 99 2 223 3 6 1 10 0 97 2 149 3 110 1 60 0 115 2 65 3 150 1 118 0 135 1 218 3 124 1 189 0 159 1 96 3 82 2 20 0 189 0 204 3 31 2 125 0 222 0 103 2 228 2 254 1 7 0 96 2 158 3 105 1 56 0 114 2 73 3 151 1 115 0 134 1 231 3 128 1 187 0 159 1 112 3 87 2 15 0 187 0 223 3 38 2 121 0 221 0 111 2 236 2 251 1 6 0 96 2 178 3 109 2 234 3 221 3 255 3 255 2 210 3 218 3 255 3 255 2 46 0 201 1 140 3 98 1 252 0 181 0 223 3 38 2 87 0 211 0 108 2 235 3 218 3 255 3 255 3 255 3 255 3 255 3 255 3 255 3 255 3 255 3 255 3 255 3 255 1 243 0 182 1 144 3 99 1 221 0 170 0 160 3 13 2 40 0 195 0 81 2 206 2 150 0 230 0 84 2 132 3 19 1 15 0 99 2 42 3 151 2 0 0 183 1 218 3 124 2 197 0 247 1 113 3 89 3 14 1 13 0 212 3 34 2 35 0 193 0 80 2 206 3 201 1 136 0 142 2 158 3 192 2 11 0 187 2 89 3 168 2 30 0 193 1 250 3 136 2 233 1 2 1 155 3 104 2 250 1 7 0 236 3 43 2 51 0 199 0 90 2 218 2 190 0 242 0 89 2 150 3 189 2 237 1 5 2 165 3 195 3 44 1 24 2 61 3 160 2 109 0 219 1 158 3 104 3 255 2 35 1 191 3 119 3 255 1 199 0 231 3 36 2 125 0 223 0 83 2 168 2 225 0 253 0 93 2 79 3 80 1 46 0 110 1 242 3 118 1 95 0 127 1 119 3 89 1 169 0 152 0 225 3 38 1 245 0 178 0 109 2 240 2 93 0 212 0 78 2 177 2 223 0 253 0 93 2 96 3 78 1 43 0 109 2 1 3 125 1 101 0 129 1 109 3 86 1 168 0 152 0 229 3 39 1 252 0 180 0 103 2 235 2 100 0 214 0 79 2 170 2 228 0 254 0 93 2 95 3 81 1 46 0 110 2 2 3 125 1 102 0 129 1 148 3 100 1 168 0 152 1 16 3 54 1 253 0 181 0 134 2 255 2 98 0 213 0 80 2 191 2 221 0 252 0 92 2 114 3 81 1 45 0 109 2 24 3 131 1 101 0 129 1 169 3 107 1 169 0 152 1 42 3 63 1 251 0 180 0 153 3 10 2 97 0 213 0 84 2 203 2 220 0 252 0 92 2 127 3 77 1 42 0 108 2 37 3 132 1 99 0 128 1 184 3 112 1 168 0 152 1 59 3 69 1 251 0 180 0 168 3 17 2 92 0 212 0 87 2 210 2 218 0 251 0 92 2 137 3 80 1 43 0 109 2 49 3 137 1 100 0 129 1 202 3 118 1 167 0 151 1 77 3 75 1 245 0 178 0 183 3 23 2 95 0 213 0 93 2 219 2 219 0 252 0 92 2 147 3 77 1 41 0 108 2 63 3 137 1 96 0 127 1 217 3 124 1 160 0 149 1 97 3 82 1 242 0 177 0 202 3 31 2 84 0 209 0 99 2 226 2 206 0 248 0 91 2 155 3 75 1 40 0 108 2 71 3 138 1 95 0 127 1 228 3 128 1 161 0 150 1 108 3 86 1 241 0 177 0 222 3 38 2 84 0 209 0 106 2 234 2 204 0 247 0 90 2 164 3 68 1 36 0 107 2 82 3 137 1 91 0 126 1 238 3 131 1 155 0 148 1 122 3 91 1 232 0 174 0 236 3 42 2 78 0 207 0 113 2 240 2 196 0 245 0 90 2 171 3 64 1 34 0 106 2 90 3 136 1 88 0 125 1 249 3 135 1 153 0 147 1 134 3 95 1 231 0 173 0 252 3 48 2 72 0 205 0 122 2 247 2 184 0 241 0 88 2 179 3 57 1 31 0 105 2 98 3 134 1 85 0 124 2 5 3 139 1 146 0 144 1 147 3 100 1 225 0 171 1 12 3 53 2 63 0 203 0 130 2 253 2 180 0 240 0 88 2 187 3 52 3 47 3 242 3 255 3 255 1 203 0 167 2 36 3 149 1 141 0 143 1 157 3 103 1 211 0 167 1 14 3 54 2 44 0 196 0 131 2 253 2 158 0 233 0 86 2 187 3 29 1 19 0 100 2 107 3 120 1 71 0 119 2 15 3 140 1 131 0 139 1 163 3 105 1 205 0 165 1 28 3 59 2 38 0 194 0 141 3 4 2 152 0 231 0 87 2 196 3 24 1 17 0 100 2 118 3 117 1 67 0 118 2 26 3 143 1 130 0 139 1 173 3 109 1 204 0 165 1 49 3 66 2 42 0 195 0 180 3 22 2 160 0 233 0 94 2 211 3 27 1 18 0 100 2 135 3 123 1 70 0 118 2 35 3 144 1 127 0 138 1 181 3 111 1 200 0 163 1 51 3 66 