368 544 578 350 609 505 384 656 436 444 642 373 531 588 349 598 517 360 642 447 420 645 385 502 603 348 574 536 347 620 474 404 659 416 468 626 355 553 563 347 610 521 361 631 493 375 643 481 383 649 469 394 655 446 418 657 410 462 645 378 525 630 363 573 577 351 605 538 356 630 493 390 658 452 418 659 412 456 643 378 517 635 363 555 584 348 589 545 348 611 538 353 621 506 383 654 463 420 664 418 456 650 383 514 639 366 554 588 349 587 548 349 613 519 359 642 484 400 661 440 429 661 405 463 643 378 526 627 361 572 571 345 591 537 348 611 532 346 616 508 379 650 463 425 655 392 506 610 352 577 547 353 626 480 403 661 418 467 630 358 564 558 349 618 493 390 654 425 454 638 368 540 578 348 608 506 382 650 433 438 639 374 530 608 354 587 527 353 635 470 416 657 399 495 620 355 578 547 350 630 484 405 660 418 468 636 371 551 579 353 616 518 368 644 464 422 656 394 507 616 356 598 530 361 648 460 432 660 397 519 639 364 588 549 360 645 477 419 664 407 480 627 357 580 550 353 629 485 405 666 423 471 636 370 550 582 354 616 520 367 650 448 429 655 388 516 632 360 585 540 353 628 475 407 661 415 477 634 361 573 557 352 629 492 399 665 425 466 642 368 552 578 347 617 504 384 666 439 447 668 409 440 662 405 442 663 402 448 661 394 502 640 362 561 588 344 594 546 344 622 517 351 641 486 388 669 447 419 672 415 469 654 379 529 630 356 577 575 340 600 540 341 625 508 369 652 473 402 673 436 434 665 399 495 644 372 531 613 350 583 566 340 608 565 349 617 526 355 642 485 390 670 447 421 669 409 454 651 379 518 645 363 561 590 344 595 547 341 616 512 347 636 483 383 664 445 414 667 410 480 635 355 570 560 341 623 492 388 670 432 460 653 373 554 591 350 621 511 381 668 440 445 660 381 540 601 347 607 521 353 647 460 418 665 394 514 646 362 591 551 348 638 486 404 675 425 472 647 366 569 577 349 627 495 389 669 429 453 647 369 550 588 346 615 518 354 647 456 420 661 390 511 616 348 595 535 348 641 469 410 673 413 487 640 366 574 572 345 622 501 386 668 432 447 651 374 544 592 346 611 537 350 642 472 409 672 412 467 641 362 569 573 350 630 492 389 668 428 457 649 369 555 585 347 619 504 377 664 435 440 653 376 536 597 345 604 516 349 646 459 421 665 394 515 646 361 592 551 349 638 482 401 672 421 472 666 395 492 659 385 506 650 380 513 668 385 537 623 353 580 571 342 602 537 342 626 505 370 655 472 400 672 434 434 665 399 494 647 373 537 615 349 582 562 340 605 559 345 619 520 346 636 489 383 667 449 414 669 412 458 652 380 525 636 360 579 582 347 608 535 348 631 503 377 664 462 417 670 417 451 648 376 513 643 362 558 590 345 595 547 340 615 511 363 657 464 411 676 428 448 664 394 505 638 359 579 556 345 630 490 393 671 427 461 648 368 557 584 347 621 504 383 670 436 446 655 376 543 600 348 611 516 354 651 458 424 665 392 518 643 359 593 547 351 641 481 406 676 420 475 643 362 573 572 347 625 502 388 674 430 463 655 371 560 591 350 624 509 383 670 439 449 661 382 543 603 350 612 537 356 656 460 424 667 394 516 643 360 591 550 350 639 481 405 677 423 477 647 364 571 577 352 635 502 396 675 432 458 653 372 555 591 349 622 510 381 668 440 442 658 380 543 605 352 610 531 351 648 473 412 671 411 472 642 362 566 568 343 623 501 383 667 433 447 656 375 546 596 349 614 528 349 644 474 412 674 414 483 636 356 585 584 344 585 580 343 590 577 343 582 580 347 608 532 342 626 499 372 659 460 413 672 419 458 656 383 521 648 365 559 590 341 591 546 340 619 518 348 639 487 385 670 451 419 674 418 465 654 380 528 635 357 576 575 343 607 532 341 626 499 371 661 459 414 670 415 451 652 379 519 643 361 564 589 343 593 540 335 616 509 363 657 461 413 670 417 455 657 384 517 648 363 560 596 345 592 547 339 614 513 347 647 466 414 666 398 509 627 352 589 543 346 638 476 400 671 416 473 642 363 573 571 344 622 500 384 672 428 462 652 370 556 585 347 623 509 382 670 440 447 658 379 541 599 348 609 521 356 658 453 432 666 390 529 628 355 600 541 352 646 476 411 673 413 482 637 357 585 551 346 633 484 397 672 424 468 646 365 566 582 353 629 498 383 669 431 449 652 373 550 595 348 618 517 360 661 446 427 664 390 530 633 356 606 528 347 641 475 408 674 416 479 639 365 564 577 349 627 494 387 671 432 454 653 373 550 593 348 618 512 358 659 445 432 665 388 527 627 355 596 535 350 645 473 410 674 414 484 640 364 571 575 349 631 495 389 670 447 410 677 440 424 677 429 435 671 415 459 656 381 522 638 358 576 584 344 605 537 342 626 503 371 656 471 404 676 435 437 667 399 500 647 372 541 615 350 587 562 339 611 561 345 616 516 347 638 489 384 671 451 416 676 417 461 657 381 523 636 358 575 580 343 606 536 343 631 506 378 668 464 418 675 420 465 664 387 524 643 362 580 588 347 605 541 346 628 508 376 667 470 417 678 425 457 661 386 516 640 359 594 551 352 643 481 404 674 420 476 644 365 571 574 350 633 496 394 673 431 462 656 374 559 589 350 623 509 382 668 440 445 658 382 541 601 348 609 521 355 653 464 422 666 395 514 644 358 589 547 345 633 480 397 669 417 466 641 361 563 573 344 628 494 385 666 427 450 650 372 554 595 351 618 509 376 668 443 443 661 382 535 600 344 602 522 358 658 448 426 663 391 524 634 357 605 534 353 649 473 415 669 402 508 630 354 590 549 349 637 482 403 674 421 473 647 366 571 579 350 634 497 389 671 430 456 652 372 555 591 348 620 510 380 670 442 441 660 381 539 606 349 608 526 361 657 444 426 664 390 523 631 355 594 540 334 601 549 337 597 557 336 589 560 338 598 545 345 626 513 354 647 484 391 672 445 426 672 412 464 659 384 529 639 358 576 582 344 605 533 339 624 500 369 655 466 401 668 428 435 666 396 493 640 361 556 588 342 590 550 341 619 516 346 640 487 383 667 450 417 672 416 462 657 382 527 637 359 577 582 348 612 553 349 627 517 357 652 480 402 676 441 436 676 409 473 657 382 542 629 357 594 569 347 615 519 362 662 449 428 664 390 523 629 355 595 541 346 640 473 405 670 413 474 634 353 567 562 338 621 494 383 667 430 453 653 372 547 588 344 611 534 350 642 466 408 669 409 468 639 364 559 578 344 624 497 380 665 430 448 652 374 546 594 346 611 539 351 644 471 408 672 413 479 634 354 573 560 340 624 490 385 667 428 456 651 371 549 586 347 619 510 377 668 440 443 658 380 539 603 349 607 527 351 648 473 410 671 411 470 645 363 566 568 339 618 496 378 666 432 447 652 374 541 594 346 611 544 353 645 474 410 675 416 481 644 363 576 566 346 628 496 389 671 432 452 651 370 550 589 347 617 512 362 664 446 431 665 387 527 627 354 551 616 352 566 604 349 572 602 349 587 568 343 610 565 349 621 526 360 658 481 407 680 436 448 670 400 503 644 363 566 596 347 597 549 342 619 515 351 644 489 388 671 449 419 674 415 466 656 380 533 641 361 578 579 344 607 532 346 632 502 378 666 460 418 674 418 462 660 384 526 641 359 577 584 347 611 566 343 611 550 344 621 511 365 656 459 407 672 421 443 659 387 501 628 353 554 587 338 588 531 345 641 471 404 670 413 478 636 357 583 549 341 630 483 392 669 424 466 648 368 563 580 348 626 499 384 669 433 448 651 373 546 595 347 613 527 350 643 474 412 677 414 482 637 357 587 554 347 637 487 399 673 423 464 646 364 563 576 349 628 501 389 672 433 452 653 374 551 593 349 619 516 363 661 446 429 664 391 526 627 354 598 541 349 644 478 410 674 415 480 638 364 570 575 348 630 497 391 672 431 453 651 372 555 592 349 621 510 375 665 438 438 656 379 537 603 346 604 521 348 645 461 417 666 396 510 622 350 592 540 348 640 473 400 667 412 475 640 364 563 576 347 627 497 384 667 430 452 654 374 549 591 345 612 520 336 616 530 331 599 546 335 599 554 337 602 531 343 629 502 375 666 464 417 675 420 461 662 387 520 649 364 560 591 343 591 548 339 616 512 342 634 483 380 664 446 413 669 411 462 654 379 526 633 358 576 577 345 607 531 339 626 512 355 646 483 394 672 446 426 673 411 473 655 377 538 620 353 584 570 342 604 537 344 629 505 374 663 462 411 673 420 458 659 384 521 649 375 544 617 353 593 562 340 610 534 349 641 466 406 668 406 464 637 364 555 574 343 621 495 376 662 428 444 652 373 546 594 348 614 527 350 642 473 411 674 415 482 637 363 569 575 350 631 496 394 675 430 460 655 374 559 593 350 622 511 381 668 440 447 661 383 542 604 350 610 527 367 663 451 434 672 395 530 633 358 609 532 349 642 475 410 675 417 481 642 367 569 578 351 631 499 391 673 432 456 652 373 554 592 350 619 513 362 662 447 433 664 389 534 632 357 612 520 362 661 450 427 664 390 524 630 354 595 541 348 640 475 405 671 416 477 639 364 567 577 350 628 499 386 669 431 453 654 374 550 590 346 615 513 359 657 444 427 661 387 527 627 355 602 541 338 605 545 339 602 553 339 596 556 336 600 535 342 623 502 370 655 470 400 672 435 439 672 402 502 651 370 552 611 349 588 569 342 607 559 342 616 519 345 637 489 383 668 453 413 671 416 457 653 380 520 646 363 566 592 345 597 547 339 619 512 346 639 483 383 669 448 419 669 412 464 655 379 530 633 357 579 575 340 602 542 343 627 507 370 655 476 402 675 438 433 668 402 494 648 369 549 607 346 580 548 344 633 481 394 668 418 465 645 366 564 576 349 628 500 389 673 435 457 660 378 555 595 349 617 524 364 660 448 430 664 389 524 626 354 596 541 351 646 476 410 674 415 482 641 366 569 576 351 633 500 389 672 430 458 656 375 554 590 348 619 510 378 665 440 441 661 382 541 606 352 612 511 374 664 443 438 663 385 535 608 349 601 529 343 637 472 402 670 415 477 637 363 559 570 344 626 494 385 668 429 453 653 372 552 593 349 619 513 363 666 451 434 666 391 527 627 353 596 538 348 644 472 410 673 413 481 638 364 571 577 352 635 498 392 673 430 460 656 375 558 592 350 621 509 380 668 439 441 655 377 538 599 345 604 517 337 613 530 332 599 543 335 600 554 337 601 527 336 622 505 365 657 455 412 665 411 458 653 379 522 634 356 572 577 343 604 530 336 617 504 365 658 460 412 670 415 454 655 382 522 641 358 572 582 345 607 538 344 629 507 374 664 464 414 675 423 459 665 389 528 648 365 572 588 346 604 541 344 628 509 373 664 468 412 678 431 448 671 398 508 643 362 566 590 345 602 547 344 624 515 355 647 484 392 672 437 451 658 378 546 597 349 614 531 348 642 474 409 672 414 478 637 356 582 552 344 632 485 396 672 423 464 646 365 561 579 348 626 498 384 666 432 450 656 375 550 594 346 611 537 352 645 469 410 672 410 484 633 356 587 552 349 638 486 403 678 414 480 642 366 565 574 348 628 496 391 673 434 461 660 378 559 596 354 622 514 363 663 447 432 662 387 529 626 356 610 528 349 648 477 415 674 407 481 639 365 573 574 350 634 496 393 673 431 458 648 369 551 583 344 616 504 379 667 437 442 657 379 540 598 345 604 516 351 647 458 419 664 393 512 640 359 589 547 346 637 481 400 673 418 470 641 362 570 575 351 634 496 390 671 430 429 673 419 442 669 409 447 669 406 449 656 385 515 652 375 538 616 351 584 562 338 605 530 343 631 501 378 666 462 419 675 420 462 659 383 529 642 364 579 585 347 608 539 347 633 505 376 665 463 413 671 418 458 659 385 522 640 359 570 584 342 602 539 341 625 501 368 655 472 402 673 433 433 668 398 492 643 368 531 608 345 569 571 338 597 539 341 621 504 365 657 456 416 672 417 464 662 385 529 639 358 596 539 348 640 475 408 674 417 482 641 366 573 583 354 633 502 390 672 430 455 651 372 552 590 347 617 511 377 667 442 444 663 384 538 606 352 608 527 347 643 472 409 671 412 480 636 356 586 551 345 634 482 395 670 420 464 641 363 564 575 348 627 495 386 668 431 455 651 370 549 588 346 618 511 379 666 442 441 663 383 543 607 351 610 531 351 647 475 412 674 413 485 639 357 587 551 346 633 482 393 668 419 464 640 363 564 577 346 627 496 387 670 431 453 652 372 550 590 347 619 511 378 667 443 443 663 384 536 601 345 603 523 359 655 444 424 662 389 520 637 357 596 542 351 642 474 406 673 416 480 641 365 568 577 348 606 553 343 602 556 339 595 562 340 591 553 340 615 519 347 639 492 387 671 454 421 677 420 468 664 386 534 642 361 579 582 345 610 565 347 618 525 356 655 479 401 677 441 433 670 405 494 650 371 545 611 347 579 567 340 603 532 339 625 499 370 654 466 400 672 430 436 665 397 494 640 361 556 588 340 588 543 335 613 511 359 651 457 402 668 422 438 660 389 499 633 357 560 582 341 598 547 345 625 513 361 658 444 429 661 388 524 624 353 598 541 353 644 471 410 672 411 483 638 364 568 569 343 619 498 382 666 432 447 654 377 547 595 349 614 530 352 644 475 415 676 409 485 662 376 563 585 350 625 505 387 672 437 455 663 381 550 601 352 616 534 358 659 462 433 672 397 525 636 359 606 536 354 649 472 415 672 404 506 630 353 589 551 348 639 483 404 675 421 472 645 363 568 572 348 632 495 390 671 430 456 649 368 552 590 348 620 507 377 666 438 442 658 381 541 603 349 607 519 349 647 456 415 663 393 512 642 359 588 545 343 635 479 398 670 417 468 642 361 563 568 338 615 496 378 662 430 444 653 374 543 594 345 610 541 350 629 521 343 622 525 344 622 519 340 621 512 349 640 481 388 668 444 417 664 406 453 650 379 517 643 360 561 586 340 591 544 339 616 514 349 640 483 387 669 447 420 672 411 466 652 376 536 625 354 578 571 339 600 538 342 624 504 372 660 464 415 675 422 460 663 389 525 647 364 577 590 348 606 547 351 634 515 360 656 478 407 681 433 450 670 399 514 666 385 551 629 361 603 564 346 621 525 359 656 480 416 676 409 481 639 364 570 573 351 632 495 393 674 429 459 653 372 559 592 349 618 506 380 668 438 443 658 380 542 604 352 612 511 378 668 443 442 661 381 535 616 352 605 528 345 641 470 409 671 412 480 637 354 572 563 343 628 491 387 668 426 456 650 369 550 582 344 617 504 377 666 438 441 655 379 541 602 348 606 521 356 657 454 431 664 389 526 627 354 596 535 348 640 471 408 673 414 481 642 365 573 575 351 631 496 392 673 430 458 653 372 558 591 352 624 513 366 665 446 439 670 392 538 628 358 615 514 361 663 448 432 664 390 527 627 354 599 540 349 644 473 406 668 411 478 632 354 573 562 343 626 493 389 668 426 457 668 401 478 658 385 502 652 376 518 663 379 545 617 351 589 565 341 608 556 343 619 521 350 641 492 388 671 452 415 672 415 459 652 377 521 638 358 565 585 341 596 539 337 622 509 367 651 474 395 673 436 427 664 400 488 649 369 545 608 347 581 569 339 605 533 343 629 502 375 664 462 418 676 420 461 660 383 523 640 360 575 586 345 603 538 342 624 502 370 657 473 404 674 434 438 670 401 497 646 371 554 591 349 619 511 380 667 441 444 661 382 541 603 348 608 525 365 661 449 430 665 390 521 637 357 602 541 351 643 474 409 673 414 479 636 361 567 574 347 628 494 386 667 427 454 650 371 553 590 348 620 511 380 670 443 449 667 387 552 618 360 631 511 389 672 441 456 664 381 550 601 351 614 530 349 641 473 408 673 414 477 635 355 572 564 344 628 496 391 674 431 456 652 372 556 593 351 621 514 363 663 445 435 663 387 530 623 354 601 532 351 644 471 414 671 404 506 631 353 588 549 346 636 480 397 670 418 470 644 362 562 569 339 616 500 379 666 435 448 659 378 547 599 350 614 532 349 642 473 406 672 415 480 640 364 564 604 348 563 598 345 568 593 345 572 588 343 597 542 339 619 508 365 656 455 411 668 415 455 654 379 520 645 362 562 587 341 592 542 338 618 510 363 656 458 411 670 418 457 658 382 521 651 374 543 613 349 588 559 339 609 553 344 619 513 346 637 485 383 667 446 415 670 412 461 652 377 529 634 357 579 578 345 615 547 348 628 512 355 648 485 395 674 446 429 675 410 461 656 383 527 638 358 579 581 346 620 505 377 667 437 443 655 378 541 600 349 608 520 350 645 456 420 665 393 513 641 358 589 546 345 637 478 399 670 416 468 642 361 566 570 341 616 496 377 665 432 445 650 372 539 592 344 607 510 367 658 447 421 660 389 515 635 355 582 552 344 632 482 396 671 421 463 643 364 563 578 346 627 500 386 670 432 452 652 372 551 592 347 616 525 361 661 449 431 663 389 526 630 358 609 529 348 644 477 414 673 408 478 639 363 568 574 349 630 496 393 672 431 458 652 371 555 590 348 619 508 379 667 440 445 658 381 542 603 350 608 525 365 662 445 429 663 389 528 631 357 608 529 348 641 472 408 671 412 479 635 357 587 556 347 634 515 347 632 518 344 625 526 351 633 524 364 659 477 411 680 431 452 669 397 514 664 380 544 616 352 588 563 342 611 562 347 618 519 351 640 488 384 668 449 416 671 413 464 658 382 530 637 359 578 582 345 608 537 348 633 505 376 663 458 416 670 417 461 659 384 529 644 362 578 587 348 608 538 347 633 507 378 667 468 421 678 422 463 661 387 527 645 363 579 591 352 609 544 348 627 507 373 661 464 415 670 403 503 633 357 596 539 352 645 476 409 672 413 478 636 356 582 552 343 631 481 393 667 420 461 640 361 559 575 345 623 495 381 663 429 447 649 370 543 588 344 609 533 349 643 469 409 672 409 483 634 356 591 552 349 637 482 400 672 422 471 646 365 567 576 350 629 495 389 668 430 456 655 374 554 589 348 619 509 380 669 441 447 665 383 541 605 349 610 527 366 662 450 430 664 389 525 627 355 596 543 351 644 476 410 672 414 482 640 364 567 574 350 628 494 388 672 429 458 654 371 552 587 346 614 513 353 648 454 419 658 389 518 642 359 595 544 345 636 475 398 667 414 471 639 365 559 578 346 624 498 382 666 433 447 653 385 491 652 381 507 645 367 534 627 356 571 581 345 605 539 346 631 509 376 663 463 414 672 420 457 657 383 518 651 374 542 613 350 587 558 339 607 554 344 618 517 350 640 486 387 670 449 418 673 415 463 655 379 526 635 358 576 578 344 611 561 344 615 517 346 635 489 382 667 451 414 671 415 458 652 379 525 633 357 577 580 343 605 533 344 630 504 375 661 459 412 668 415 458 657 383 522 639 359 575 568 346 626 496 385 669 431 455 655 373 550 590 349 620 517 365 660 446 431 664 388 526 626 353 600 537 350 643 471 409 670 412 477 632 353 574 558 340 623 489 387 668 426 456 650 369 556 589 350 624 512 367 658 460 430 669 395 524 631 356 601 531 351 649 468 414 666 399 509 629 352 587 547 348 638 480 401 671 417 473 642 364 570 569 346 624 502 385 670 436 452 654 376 546 592 347 613 528 350 644 473 410 669 412 480 632 354 575 561 343 627 492 388 667 425 453 643 365 552 582 346 618 500 376 663 435 440 652 376 540 596 346 607 519 355 651 461 424 663 393 515 638 356 591 544 346 637 478 401 670 416 468 639 366 561 581 343 580 579 341 582 573 340 581 583 345 599 555 346 621 516 352 642 488 390 673 452 424 677 416 464 654 380 529 634 358 578 577 346 612 546 347 627 511 373 662 466 411 677 430 444 665 394 504 640 362 567 590 346 599 545 344 622 516 354 647 487 393 672 447 424 674 413 472 654 378 535 620 354 583 573 344 604 539 346 631 511 380 668 469 421 679 426 463 664 389 522 642 363 573 590 349 605 542 344 626 495 388 666 429 454 649 372 551 586 344 613 520 358 658 449 422 665 393 520 643 359 593 547 348 641 482 407 677 421 476 644 363 567 570 343 621 502 386 670 435 449 654 374 545 596 351 617 532 353 646 473 412 675 415 481 639 365 570 573 349 628 493 390 670 429 456 651 372 553 588 348 620 509 381 668 440 443 656 379 540 602 349 606 522 361 655 443 424 656 384 520 633 353 581 546 345 635 479 398 668 417 466 638 362 559 568 339 616 500 376 663 433 442 653 376 538 591 343 606 516 353 648 456 420 662 391 515 639 357 590 545 345 638 478 401 669 418 470 639 365 555 577 343 621 498 380 664 431 447 653 374 547 594 347 612 526 335 603 543 337 601 549 336 595 557 337 600 532 340 624 501 371 660 462 409 672 424 442 660 390 505 638 359 565 585 345 600 542 343 622 509 371 659 477 406 678 440 439 671 403 496 652 370 548 611 351 584 572 344 608 564 346 616 529 346 633 506 378 667 463 416 674 418 460 660 385 524 643 364 578 588 349 606 539 347 631 510 380 667 468 418 676 425 460 663 389 518 649 375 541 616 354 589 566 342 610 543 355 643 473 411 674 415 479 635 356 582 549 341 630 484 396 669 422 467 645 367 563 579 350 627 499 385 667 431 450 652 374 548 592 347 613 524 360 657 446 426 660 388 522 625 355 596 540 351 645 476 411 674 416 480 641 366 571 580 356 639 493 406 680 422 481 649 369 576 576 356 644 487 407 678 425 476 652 369 571 579 354 633 502 400 682 432 475 656 373 567 586 354 631 504 390 672 437 456 656 376 551 595 350 616 526 363 659 449 428 664 391 526 628 355 594 540 348 641 474 406 669 414 475 635 364 562 572 345 627 495 387 667 429 448 646 369 544 584 343 610 530 343 635 476 404 671 416 473 638 365 562 578 349 625 497 361 643 499 370 653 486 378 658 473 388 667 440 423 668 406 458 652 380 523 632 356 574 574 342 606 534 345 630 503 374 662 463 418 672 420 461 659 384 523 639 359 573 583 347 605 541 344 626 504 370 656 472 403 672 434 436 668 399 498 646 371 534 610 346 571 570 337 594 536 342 622 507 372 662 467 408 673 429 441 662 392 504 643 362 564 587 343 596 544 341 619 510 367 652 475 398 672 438 432 669 395 519 643 360 592 548 347 638 479 399 669 417 469 637 365 558 580 346 623 500 381 666 432 445 651 372 545 596 348 614 530 351 644 476 414 674 409 479 642 367 569 579 355 634 501 393 673 432 457 653 374 556 592 351 619 510 379 665 440 442 656 381 537 602 348 605 524 361 657 448 426 662 389 523 628 355 591 541 348 639 474 405 674 417 477 640 365 566 578 350 626 499 389 671 433 452 655 375 554 595 350 615 520 351 649 462 421 668 395 515 646 360 588 547 343 631 477 392 668 417 468 644 363 562 574 348 629 498 389 669 431 455 654 375 555 596 352 618 513 359 659 447 431 662 388 525 624 354 596 536 348 641 472 410 673 414 453 669 404 480 660 388 502 650 377 516 651 375 541 617 353 592 569 347 612 545 351 631 513 357 654 474 403 676 440 438 672 404 497 650 369 548 610 349 582 566 340 606 533 345 629 501 374 662 461 414 671 419 461 658 385 526 644 364 578 589 350 610 543 