477 578 423 518 562 421 548 526 429 577 477 466 593 440 501 571 421 535 540 421 559 502 450 592 450 489 591 417 527 560 414 561 524 422 582 483 458 600 431 492 579 411 531 547 410 560 521 420 584 496 457 603 442 499 576 419 530 539 413 552 497 437 581 444 479 574 418 516 557 410 536 515 414 562 498 431 577 490 443 587 479 453 591 458 464 584 436 483 575 418 509 567 416 529 551 420 545 538 421 556 519 421 569 514 431 579 493 462 597 462 480 593 438 504 584 421 517 578 426 529 559 420 535 546 417 543 526 419 560 505 437 580 474 457 587 439 471 578 420 493 569 419 522 565 420 533 545 415 540 520 410 546 508 430 575 479 452 584 443 475 576 423 496 568 418 521 569 422 531 550 419 544 533 416 554 496 444 582 440 478 568 413 515 550 412 540 516 418 563 486 445 579 437 485 576 416 514 554 413 537 517 415 562 483 447 582 435 485 571 412 518 547 413 540 509 433 574 451 465 574 418 504 552 411 536 517 416 557 478 443 579 429 479 568 417 525 543 414 547 503 437 580 451 475 574 417 509 548 412 542 513 417 560 482 445 577 424 468 547 391 499 512 388 521 484 396 529 410 397 505 342 405 464 320 437 427 333 473 378 352 477 336 352 464 312 385 453 319 438 445 344 487 418 387 528 387 435 524 377 483 517 394 527 498 429 579 466 487 596 444 540 589 450 575 518 434 560 428 419 506 337 399 446 316 442 405 342 474 361 374 498 378 426 548 428 504 623 468 522 606 445 515 599 442 512 540 372 442 457 314 407 347 249 391 349 338 498 430 439 574 449 480 550 398 479 567 452 586 627 544 698 663 552 614 482 457 584 475 549 667 534 627 727 615 722 723 607 727 697 598 726 674 597 734 666 642 780 655 661 754 587 624 704 548 593 597 440 564 599 525 693 706 662 800 711 647 755 603 556 669 526 502 596 455 527 624 483 581 602 489 610 560 488 651 558 536 606 438 478 539 378 446 428 303 463 448 434 582 473 537 641 471 538 537 394 511 488 429 569 469 500 597 441 501 552 395 499 507 406 542 478 442 552 407 460 500 330 399 368 256 400 359 360 543 454 512 560 376 414 353 217 346 325 289 446 365 377 515 414 494 558 439 577 603 526 625 535 578 679 579 668 804 717 851 824 714 861 820 805 874 697 665 754 598 641 624 452 580 589 550 733 665 688 824 650 712 782 612 674 614 447 547 466 432 564 417 447 515 347 423 463 336 459 374 302 404 269 290 418 278 334 422 311 406 315 262 358 234 212 347 225 267 321 193 309 330 251 415 361 346 496 380 413 528 389 486 545 402 489 556 415 514 592 449 543 616 469 579 592 463 587 538 436 571 497 468 596 449 417 467 282 319 373 223 311 341 254 356 276 216 330 279 301 462 374 353 462 330 299 398 274 288 378 250 311 387 267 354 375 239 342 327 230 375 350 334 524 547 600 688 596 650 693 549 597 604 471 522 553 429 575 688 577 666 716 644 773 742 575 632 550 478 645 598 628 824 766 830 927 774 832 916 749 804 792 600 657 612 496 568 387 302 373 229 334 422 297 364 299 192 293 214 170 258 167 223 318 191 262 243 138 247 227 244 408 304 369 514 423 560 647 583 721 676 593 727 614 590 671 482 501 490 294 340 257 184 363 319 341 501 385 467 575 487 603 601 566 728 689 736 803 614 602 681 573 700 726 590 691 609 547 661 586 664 725 568 580 571 529 690 692 674 743 578 494 480 352 463 532 355 396 412 337 466 406 483 610 492 542 569 426 529 537 418 525 508 423 559 505 419 430 264 292 336 198 216 228 129 207 175 176 361 399 591 695 664 830 866 849 933 830 802 862 728 791 703 537 576 450 509 605 498 557 696 593 631 666 685 861 895 848 884 773 688 752 685 706 685 509 476 501 346 263 376 407 520 645 572 607 686 572 624 665 549 624 623 525 611 577 494 585 530 483 572 491 492 556 455 501 553 447 516 547 436 507 523 423 509 507 429 516 498 436 523 473 445 526 450 454 518 429 464 514 415 465 505 402 472 492 394 474 485 399 482 465 412 496 448 436 512 441 454 506 413 469 507 409 477 493 402 478 481 408 486 462 419 497 435 436 503 416 454 493 393 469 481 400 486 457 430 507 426 460 503 404 481 491 412 496 469 437 512 441 460 515 422 479 506 418 492 482 435 516 459 459 516 431 475 509 420 492 488 435 511 456 461 519 435 482 519 428 495 507 429 501 470 444 513 446 473 521 431 493 512 425 498 490 439 509 456 467 521 431 486 515 426 497 502 442 516 484 462 529 454 480 524 434 500 513 427 506 492 450 523 463 476 528 442 501 523 431 512 512 442 514 488 453 526 463 485 534 441 506 521 437 516 516 445 523 492 466 535 464 492 536 444 507 518 444 519 504 443 520 481 465 533 454 489 523 432 505 515 437 510 487 456 531 460 487 532 435 501 521 433 507 494 446 527 479 460 530 473 464 535 470 472 535 464 479 535 446 490 538 443 501 533 440 506 521 435 511 509 435 520 502 449 529 485 467 539 469 481 542 449 494 541 442 506 536 429 506 523 432 522 513 438 527 511 433 534 513 424 538 507 450 563 485 469 564 441 479 550 426 492 549 424 505 540 422 515 538 424 520 537 425 525 526 426 535 511 429 546 491 448 556 462 474 563 441 492 562 430 506 547 425 512 544 427 522 522 431 547 485 455 563 443 488 559 429 511 539 426 537 504 447 561 459 479 556 424 502 538 425 527 518 430 547 479 460 566 439 490 557 425 510 524 416 523 493 440 550 445 465 547 415 484 515 398 491 473 396 511 437 432 529 407 463 521 404 495 516 414 528 509 445 565 486 485 581 456 521 578 451 548 544 454 576 507 482 584 457 508 572 449 541 553 457 578 528 482 597 493 511 596 459 520 570 445 542 538 450 562 498 478 577 456 506 566 443 530 538 442 553 495 464 569 452 492 562 432 511 536 425 531 511 436 553 471 463 558 432 491 539 421 509 514 422 529 484 443 555 443 474 545 414 491 516 407 499 480 416 528 445 448 539 429 453 544 422 462 544 424 473 547 420 480 540 420 492 536 422 502 527 424 520 518 419 525 513 428 539 504 450 560 480 475 576 465 505 588 462 530 585 463 553 585 477 578 567 479 585 540 476 587 513 480 588 487 500 580 454 505 567 441 521 563 440 521 547 433 525 533 431 533 513 426 533 508 438 544 482 449 551 457 473 557 434 485 552 425 489 540 423 503 533 421 511 521 424 527 511 427 538 494 448 557 451 482 555 424 502 526 424 538 495 446 557 446 475 551 426 507 532 419 520 508 431 543 477 464 559 437 492 544 426 515 532 428 535 504 449 560 455 475 556 421 497 534 424 530 506 440 555 466 473 558 433 499 533 421 521 523 432 543 482 457 560 447 489 558 427 510 530 426 534 501 449 555 451 479 561 441 515 548 431 527 522 439 553 482 461 558 436 488 552 426 503 525 425 530 495 447 558 451 476 553 425 496 525 419 524 509 431 544 471 463 556 430 488 539 421 508 520 425 532 493 451 559 448 478 553 427 507 535 426 532 502 447 555 452 473 551 423 497 533 420 524 511 438 555 476 467 562 436 496 545 429 520 532 431 529 525 425 526 529 430 529 532 428 524 528 435 540 508 443 552 479 464 566 457 485 562 442 507 556 430 508 537 429 523 528 432 537 514 428 539 500 445 552 470 461 558 442 478 555 436 499 545 425 505 531 421 515 530 426 532 521 437 536 505 440 551 475 461 561 456 485 559 437 498 551 432 511 536 431 527 529 438 542 503 447 552 478 471 567 454 485 559 438 509 552 432 513 543 436 526 532 435 533 514 436 543 483 460 559 445 488 555 429 509 527 427 532 497 451 558 458 480 554 429 499 530 419 519 510 432 540 469 464 560 442 492 545 424 510 518 423 527 491 451 554 449 481 553 428 508 524 429 535 496 454 562 456 482 556 428 504 534 429 534 512 439 548 480 468 566 447 491 549 432 518 542 440 538 506 452 559 461 478 555 430 503 539 429 528 512 435 542 483 462 563 449 493 561 439 521 539 434 531 503 448 551 455 474 556 430 504 536 432 530 506 450 558 462 476 557 435 505 540 432 527 507 450 556 466 478 561 435 498 536 430 530 515 440 549 474 462 555 437 488 551 426 509 532 434 538 501 452 558 456 479 554 431 506 531 430 525 525 427 519 532 431 518 538 430 513 537 430 520 531 430 524 514 429 533 504 445 552 479 459 557 452 475 548 432 489 548 431 504 538 426 514 528 430 526 514 430 527 505 441 550 479 459 558 452 484 556 435 497 546 424 500 533 422 509 519 425 523 517 431 529 505 440 550 479 463 555 456 481 559 439 500 552 431 504 529 426 517 525 433 533 511 437 536 497 450 556 468 466 562 448 487 553 437 503 540 425 515 514 429 538 486 457 560 454 494 562 441 520 546 436 533 515 438 543 485 467 564 452 493 555 435 508 525 431 531 491 449 552 454 479 553 430 503 531 432 531 503 447 551 459 474 554 434 499 531 426 530 508 452 549 456 473 556 435 502 539 434 527 511 441 550 477 478 566 445 500 548 432 524 523 435 541 483 464 563 452 493 554 435 519 539 438 535 506 448 558 463 480 559 437 499 531 430 531 507 450 555 463 474 555 437 504 537 432 526 506 448 555 463 478 558 435 501 537 429 528 506 443 549 463 472 559 440 502 540 431 526 512 432 537 486 457 561 458 492 560 440 512 546 443 538 521 441 546 483 466 558 447 494 549 435 510 543 436 510 542 430 507 538 431 507 529 433 524 516 431 527 506 444 554 489 464 562 456 479 557 440 493 549 434 510 540 434 516 525 429 526 516 435 538 507 449 554 482 467 561 460 487 559 439 497 543 424 503 533 432 522 529 437 533 513 434 537 508 451 555 479 462 559 455 481 559 442 498 548 435 509 533 433 521 522 432 532 513 435 540 510 452 558 487 467 561 453 481 555 443 500 551 438 517 545 437 529 516 434 541 482 466 561 448 491 554 431 510 523 429 533 496 453 557 459 483 554 436 512 540 437 528 510 442 549 476 472 557 438 495 539 428 522 518 430 533 492 458 554 454 483 550 439 512 537 435 531 511 444 550 470 467 556 439 498 544 431 521 522 437 540 493 453 555 454 488 552 436 504 523 429 526 493 449 549 452 474 549 432 500 530 424 519 505 436 541 470 465 555 441 494 545 432 512 522 435 538 494 455 557 461 487 555 433 512 540 439 534 513 442 544 476 463 559 447 495 547 432 515 532 437 541 509 456 554 458 480 558 439 508 529 430 528 500 450 551 462 480 557 433 505 529 429 539 512 444 551 480 470 561 446 484 557 443 494 555 439 495 554 445 496 549 434 511 541 435 523 531 436 531 507 444 543 480 459 560 460 480 559 444 495 551 433 507 537 431 520 531 434 531 523 443 539 504 454 553 470 463 559 455 486 553 435 499 543 429 510 528 429 523 515 431 526 502 449 549 479 462 556 455 481 558 441 498 546 430 506 530 429 519 523 434 532 513 433 536 504 443 542 474 460 553 453 478 552 436 493 546 430 505 531 433 528 503 450 552 462 477 555 435 502 531 426 525 504 452 549 458 474 552 434 500 533 431 525 510 446 554 478 474 563 446 499 546 436 523 520 439 538 494 460 558 456 488 551 440 512 537 439 534 514 438 544 483 466 561 451 495 552 439 516 535 439 534 504 455 559 461 482 554 441 512 545 438 524 513 438 541 482 469 560 447 490 550 436 509 524 432 532 495 455 554 459 483 552 434 510 527 432 532 497 455 557 463 483 557 439 512 546 440 530 515 443 547 489 467 561 449 491 554 437 510 530 434 534 501 456 554 454 478 554 439 507 528 430 530 499 453 553 458 481 557 438 505 529 433 533 509 459 562 462 480 556 437 503 528 428 515 532 429 512 541 428 507 532 432 508 524 426 520 520 433 529 509 436 534 496 450 553 470 468 561 449 486 555 441 507 542 432 514 533 437 527 525 439 534 510 455 556 484 469 560 459 483 556 438 494 545 433 508 534 429 518 524 432 527 513 431 531 508 443 549 492 462 555 463 471 554 438 481 542 426 498 527 417 504 516 428 515 513 426 516 498 421 521 479 435 533 452 448 537 433 460 538 419 471 532 415 491 507 418 516 477 439 537 441 466 540 420 484 523 416 505 497 432 531 459 462 545 432 483 534 427 511 509 437 541 476 464 556 445 495 549 433 517 528 436 536 501 461 565 466 490 556 440 512 543 439 531 513 437 539 492 466 560 452 489 560 446 514 542 438 528 515 446 551 483 474 569 449 495 549 436 521 533 445 544 505 460 562 468 493 564 446 516 545 440 533 514 443 546 486 470 564 458 500 559 447 529 536 448 547 497 469 568 464 499 565 446 522 543 450 545 512 456 563 481 484 560 448 507 541 439 531 518 442 546 487 471 563 453 501 553 441 520 537 442 535 504 463 560 463 483 557 437 507 527 435 535 505 454 553 460 467 561 454 483 564 448 487 565 450 490 559 440 504 554 446 521 549 441 518 534 437 527 521 432 534 512 437 536 503 446 543 470 460 555 454 483 556 440 498 541 430 507 530 434 521 523 434 528 509 444 545 495 461 560 472 479 559 448 493 554 443 500 546 433 509 533 437 526 519 436 532 514 440 535 507 451 554 486 471 560 461 488 560 445 505 552 444 523 548 447 531 533 445 544 524 456 556 505 470 566 470 488 559 440 512 546 440 532 521 446 546 486 469 565 452 494 551 439 516 530 436 531 502 460 554 458 479 550 434 502 530 430 525 506 451 551 464 480 556 438 502 533 430 526 510 444 553 482 477 561 445 504 549 436 523 525 446 555 495 472 563 454 498 554 437 511 523 442 537 496 462 560 461 491 554 443 517 544 440 532 516 446 547 483 473 562 451 498 548 439 521 535 443 547 505 468 568 467 489 557 442 519 543 441 532 510 449 551 478 477 560 444 500 541 431 517 518 432 529 493 452 553 454 481 544 434 504 524 434 532 501 456 551 458 480 548 429 494 522 421 515 502 433 537 479 461 550 442 486 545 430 503 515 427 526 496 442 537 488 444 544 481 452 545 468 456 551 452 478 545 432 488 540 426 498 530 428 512 521 428 519 519 430 520 517 431 525 508 439 534 489 446 545 468 474 555 450 487 539 424 491 524 419 498 519 423 508 504 419 518 496 437 535 481 450 543 454 470 542 432 482 549 441 500 539 429 505 521 430 517 523 437 525 508 433 530 494 452 548 464 462 551 447 483 544 431 494 536 423 502 527 426 509 511 433 532 492 449 540 451 477 545 427 490 527 428 523 511 442 545 477 468 552 438 491 538 429 515 525 437 533 495 457 548 447 475 543 432 501 521 434 525 502 456 548 462 475 551 438 509 538 435 525 498 443 538 453 462 547 437 496 534 434 522 518 445 532 481 459 551 450 488 540 425 501 522 433 529 496 448 545 450 463 534 422 483 530 429 520 514 429 529 488 449 545 448 481 546 440 520 540 442 527 507 446 542 463 466 534 421 471 517 418 501 504 434 534 481 464 556 451 496 551 437 510 515 424 523 497 450 550 456 478 553 440 507 530 435 531 504 458 556 464 484 557 443 508 532 438 530 510 462 556 466 485 558 443 513 546 441 530 518 434 521 527 429 519 536 444 526 543 447 527 524 436 533 520 451 543 511 461 561 494 482 571 471 495 560 449 506 550 448 526 549 452 535 536 446 538 517 445 543 511 468 568 491 484 573 467 503 568 450 508 551 445 516 544 441 525 534 444 532 517 433 523 499 445 546 479 469 558 451 479 549 435 497 547 435 509 533 434 517 524 432 524 509 440 532 494 450 543 462 459 547 443 485 548 431 492 537 431 506 518 435 526 495 448 544 454 477 546 436 499 527 432 519 502 441 543 465 474 553 438 499 530 430 520 502 442 542 469 479 555 445 511 549 451 541 536 457 557 495 480 575 472 519 579 463 538 553 449 548 512 461 562 476 488 570 455 518 558 448 536 536 456 557 501 483 573 465 507 563 451 527 539 455 558 515 480 578 482 510 574 459 528 555 451 541 527 461 558 486 481 566 457 505 549 446 530 529 447 537 485 461 553 452 493 553 440 513 546 440 531 520 440 542 486 479 561 454 501 551 439 520 538 443 539 512 445 542 481 475 563 451 504 549 440 524 521 437 534 499 461 553 461 489 550 440 515 545 445 530 512 438 542 491 467 551 460 478 548 442 473 542 437 477 542 434 485 534 429 493 539 435 510 528 426 521 531 442 531 518 442 532 500 451 540 469 458 542 447 469 544 436 487 541 436 505 538 429 503 521 426 514 517 425 518 521 439 532 514 436 535 504 448 547 482 476 568 466 497 568 459 508 554 439 509 536 436 518 525 431 513 511 425 512 493 429 528 475 447 544 454 467 543 435 483 541 432 492 535 427 502 524 428 513 519 432 526 503 463 555 471 493 563 451 518 546 445 533 521 455 551 488 479 561 455 504 552 444 530 536 455 557 507 481 569 471 510 557 448 522 542 450 539 513 460 565 488 497 578 465 526 567 460 541 538 458 548 499 478 563 460 502 559 453 529 546 454 548 524 472 561 489 502 569 462 524 554 451 537 536 451 544 500 480 568 466 509 559 449 526 547 458 547 521 458 552 495 493 579 478 530 582 472 547 553 464 554 507 479 569 465 503 561 448 520 538 440 529 505 456 554 468 485 555 443 511 531 436 523 497 443 534 463 478 545 441 503 531 436 520 517 436 531 499 469 560 465 493 553 442 511 529 440 532 501 458 546 462 482 548 440 507 544 440 505 538 437 501 531 432 509 546 441 515 527 431 513 519 433 513 511 437 530 497 449 533 470 457 540 455 476 544 441 492 540 441 508 536 433 508 516 427 502 491 425 518 478 444 534 460 460 541 445 478 541 437 490 536 432 507 529 430 516 521 431 514 517 433 520 513 437 528 507 453 544 489 465 556 467 485 552 444 494 553 435 496 537 431 507 522 432 517 512 428 522 502 438 535 484 454 543 461 470 542 437 495 528 427 512 508 436 526 473 460 541 444 484 545 436 505 521 436 523 503 456 546 467 491 552 449 508 534 438 526 519 452 545 489 478 551 454 497 547 441 514 533 443 529 510 463 551 471 486 550 446 505 536 439 522 510 440 533 478 461 544 446 487 536 431 504 509 436 523 476 452 538 448 483 537 429 497 509 429 518 488 448 535 451 470 531 428 494 518 426 506 497 447 537 470 472 542 444 497 533 431 508 506 438 531 481 464 546 454 493 552 441 512 542 443 522 514 445 535 492 467 545 457 490 543 437 509 523 442 530 500 457 543 463 482 541 442 509 537 445 528 517 453 539 487 467 546 456 493 544 442 503 524 430 508 517 433 514 525 429 502 519 426 506 520 426 507 503 432 520 498 441 533 477 454 535 454 470 540 442 489 548 442 498 539 434 505 528 434 518 525 442 525 512 449 536 503 451 540 480 468 551 461 488 547 442 495 542 440 509 535 436 517 531 443 526 524 449 544 518 454 541 502 458 555 484 487 562 466 500 559 455 512 556 449 519 552 452 520 546 446 524 536 443 524 516 444 527 509 450 540 501 468 553 473 493 552 451 517 546 451 525 524 449 544 495 473 555 465 504 557 446 518 540 445 526 508 446 536 478 472 547 443 493 537 431 506 511 436 525 484 456 536 447 480 534 430 503 520 432 515 496 444 533 467 473 539 442 492 527 431 512 518 439 523 496 459 542 463 484 543 441 501 526 432 519 509 445 535 484 470 549 453 497 548 441 520 535 445 533 507 460 549 470 487 550 442 502 528 438 521 511 446 536 480 472 550 450 496 543 440 518 530 445 532 503 460 543 463 482 546 442 503 532 439 523 513 438 528 490 463 550 456 495 555 447 514 544 447 526 519 452 540 494 472 555 458 499 547 444 515 534 444 527 510 449 541 479 474 551 458 487 553 450 490 555 457 496 555 450 494 546 436 495 534 432 508 518 438 518 520 436 520 513 439 526 509 446 534 493 457 543 474 474 550 456 485 540 434 492 535 436 511 532 436 518 522 436 518 509 441 527 493 450 537 475 466 543 458 483 543 441 492 539 435 500 528 432 513 525 437 515 520 438 520 514 439 529 509 446 534 497 464 550 476 480 553 454 496 554 449 511 546 440 519 542 451 530 539 446 531 505 457 542 470 485 552 448 509 542 440 523 514 441 533 491 470 551 452 490 547 437 506 524 435 524 504 455 548 469 484 553 447 512 540 445 528 519 447 541 492 469 548 453 484 536 432 502 514 426 509 486 447 528 453 475 536 433 493 516 418 498 500 429 527 480 457 538 447 480 537 428 498 510 431 521 488 451 538 457 478 554 445 510 539 443 527 513 434 533 491 464 550 448 486 536 431 513 527 438 524 488 450 546 459 492 550 444 508 533 437 521 514 441 526 486 462 543 453 488 539 435 502 518 436 522 502 455 542 469 478 541 433 488 522 426 512 509 426 518 478 446 534 442 468 529 428 495 509 426 517 487 446 537 459 474 551 452 481 552 443 470 541 435 476 532 422 478 518 413 480 521 427 503 519 425 508 510 433 532 495 447 544 470 465 543 446 480 545 437 495 539 429 501 525 423 508 512 432 519 512 438 532 512 441 534 501 452 545 480 477 560 462 494 562 453 501 542 439 514 553 448 522 538 448 535 530 452 546 517 456 551 505 468 562 479 482 559 461 502 552 441 508 543 444 519 539 440 522 520 439 520 513 429 525 503 449 539 463 468 539 441 497 531 436 522 516 445 532 489 461 545 456 486 536 433 501 519 436 523 500 455 548 466 480 547 442 507 535 444 527 516 447 539 493 470 552 454 496 546 441 515 532 436 521 502 451 541 470 474 546 447 504 547 444 521 529 439 525 495 452 542 456 479 539 435 497 520 429 516 514 445 539 498 462 549 454 485 543 436 509 520 436 526 499 461 553 467 487 546 440 502 527 435 524 508 444 537 477 472 553 451 500 543 438 520 529 444 530 497 461 544 461 484 545 444 508 532 441 529 511 453 547 479 481 549 451 502 542 447 523 522 452 541 499 472 555 464 500 552 448 517 541 453 534 521 458 547 498 481 557 460 492 555 461 491 556 456 494 557 457 497 552 448 504 541 439 513 537 442 516 532 445 523 520 443 524 509 449 535 499 464 546 479 476 552 462 496 559 454 504 549 450 510 536 439 518 531 450 527 522 451 536 512 446 534 500 457 547 483 478 556 462 491 543 440 500 539 438 506 530 441 522 516 440 522 506 445 534 497 461 550 481 484 554 462 501 557 452 507 546 443 512 537 446 517 531 443 520 525 447 527 509 462 554 476 490 548 451 511 535 446 529 517 452 540 494 474 554 460 500 544 443 515 530 444 529 508 464 545 473 484 552 452 513 550 450 522 528 453 539 504 476 554 468 498 556 446 506 529 442 523 507 455 546 469 478 540 440 496 527 435 515 514 438 525 494 464 546 460 488 541 441 508 529 443 527 510 449 543 481 468 540 447 499 542 437 517 530 447 530 501 464 545 473 494 555 451 514 541 444 518 520 440 525 499 460 545 469 485 543 440 496 516 422 498 485 435 522 460 465 533 434 490 527 434 509 506 441 531 486 470 545 457 495 555 444 512 542 445 525 518 444 532 487 456 545 455 496 548 443 508 520 436 520 506 457 540 483 466 549 479 478 556 471 484 555 462 487 546 444 498 541 441 507 535 438 514 527 444 523 518 446 528 510 453 535 496 466 548 473 481 548 458 492 549 443 499 546 438 507 532 437 507 516 436 525 512 439 528 505 454 541 488 473 551 467 488 550 454 501 547 445 510 539 446 518 532 443 523 522 448 536 512 449 535 510 463 548 488 475 564 477 505 566 461 511 551 447 516 544 446 523 541 445 526 523 451 540 510 481 562 476 508 562 457 520 545 450 530 516 451 541 497 480 553 456 496 542 433 506 520 434 524 503 465 545 467 487 549 445 504 530 439 522 512 448 530 492 471 544 460 492 551 448 517 540 448 525 513 449 539 497 474 558 468 503 561 449 515 536 442 526 505 455 543 468 476 547 438 486 534 425 499 508 432 525 479 455 547 450 482 537 432 501 516 430 521 497 447 543 465 483 555 444 507 531 435 525 505 452 546 467 481 554 447 512 536 436 519 516 446 535 491 470 547 459 484 533 430 495 511 432 517 484 443 532 451 472 536 442 501 526 434 515 508 446 534 485 469 545 451 488 531 430 501 506 431 518 482 453 542 457 482 540 440 481 540 435 477 537 436 482 534 429 487 539 436 505 528 434 515 527 444 527 513 441 528 505 450 545 487 466 545 453 474 546 445 496 538 436 503 529 434 508 513 431 512 507 433 515 495 440 529 473 446 540 460 484 549 451 496 539 434 497 525 431 505 518 434 515 522 442 538 534 476 563 516 475 562 495 498 567 474 510 558 450 504 541 431 504 532 435 510 512 439 520 508 440 530 495 453 540 475 474 555 454 503 545 437 511 510 447 538 489 478 549 456 500 554 452 517 544 448 537 522 459 552 486 484 564 465 516 569 460 531 539 460 546 503 474 555 459 492 561 450 511 531 433 516 504 457 545 472 470 539 435 489 525 423 503 501 432 527 485 473 563 471 514 566 456 525 555 467 559 537 493 588 515 517 595 489 506 571 464 524 543 446 530 512 447 540 493 470 550 448 487 544 433 492 507 415 500 478 434 525 450 467 535 429 481 528 432 514 524 460 553 502 482 564 466 500 557 450 511 527 445 535 496 460 551 460 480 539 435 502 530 441 530 510 452 545 475 477 561 457 509 549 448 536 535 457 553 501 483 565 468 513 573 461 517 569 459 514 563 455 508 559 454 501 544 436 497 521 426 498 502 419 511 486 435 523 459 437 526 437 448 524 416 453 517 413 464 516 418 487 518 425 501 509 434 522 497 444 535 474 454 539 450 468 544 438 478 535 427 489 525 424 498 508 428 515 495 439 531 476 447 534 454 462 542 444 476 535 434 489 529 427 498 514 431 506 505 433 522 493 451 542 477 465 552 457 481 549 445 493 547 439 500 528 438 528 509 455 544 467 469 547 442 487 533 426 501 500 431 522 475 454 540 446 479 539 435 503 515 428 512 492 442 534 460 469 545 437 485 535 434 508 509 447 542 481 468 545 444 481 535 435 508 511 441 531 480 461 546 445 482 536 437 508 513 438 534 501 465 554 460 482 544 436 501 522 439 530 505 460 550 464 478 547 444 502 527 438 522 505 454 540 466 470 545 442 489 537 430 505 506 437 531 478 460 544 444 481 530 430 503 509 444 530 482 464 547 447 485 536 436 509 512 441 529 493 458 548 462 486 547 434 493 516 431 513 501 448 542 471 475 547 446 500 538 440 523 522 454 551 495 481 564 470 506 559 459 529 541 456 542 534 452 534 533 451 533 535 448 524 522 441 526 502 448 539 481 460 548 464 480 552 447 494 545 444 506 537 443 524 531 449 533 520 448 536 506 460 549 476 467 551 457 482 544 444 494 539 438 502 526 432 516 525 443 521 512 437 529 510 451 539 496 463 555 477 482 561 454 493 556 448 499 545 439 506 531 440 516 520 435 518 514 436 522 505 445 537 486 458 543 466 472 548 446 483 544 440 497 539 439 519 522 449 540 498 472 563 468 494 560 446 506 524 437 525 500 455 548 460 477 546 440 494 521 433 513 510 440 532 481 464 545 448 485 540 440 511 516 437 527 501 463 550 460 484 545 446 508 529 437 525 500 455 544 468 477 550 444 496 534 435 515 510 443 534 483 465 551 447 488 550 441 507 525 444 537 504 462 551 465 483 550 447 505 533 445 531 509 463 553 471 483 555 449 509 534 444 531 513 449 542 495 476 559 464 501 557 453 524 541 447 533 503 463 552 463 482 552 444 503 534 446 532 510 461 554 471 480 548 447 501 536 439 520 513 441 528 487 461 551 455 487 546 441 507 526 447 539 506 468 557 469 491 555 455 506 553 452 504 547 444 501 544 440 500 539 446 516 534 446 523 522 446 529 507 450 541 485 457 546 457 469 545 442 480 533 431 492 524 430 509 515 433 516 510 436 525 499 451 542 484 468 550 456 477 545 440 486 540 443 499 538 439 510 524 441 525 514 446 531 507 462 553 485 473 559 467 490 555 450 506 547 448 517 546 448 523 531 448 533 518 448 536 506 457 547 487 478 561 471 493 553 453 498 544 445 513 526 448 536 503 467 553 471 490 551 446 506 532 451 542 514 451 542 486 467 548 453 494 550 447 504 523 438 524 501 461 549 467 482 546 445 503 533 443 532 514 447 533 486 465 550 450 482 540 439 508 518 442 527 494 461 549 458 483 549 442 503 526 441 524 500 455 540 463 476 545 444 498 533 436 514 515 446 532 494 469 556 464 489 550 445 512 536 446 525 508 452 549 480 475 553 450 498 542 441 519 522 446 535 496 469 554 459 488 543 443 508 521 438 523 501 457 546 460 478 548 441 498 532 436 516 507 441 537 484 467 552 451 489 551 447 511 529 445 528 500 459 543 460 476 543 439 494 524 437 522 510 449 543 482 463 552 473 467 555 462 470 549 458 477 553 451 494 544 442 502 533 442 516 530 446 527 522 455 534 502 457 548 486 479 558 464 491 554 453 504 549 446 511 534 447 526 527 449 531 511 450 540 494 455 543 469 466 548 451 484 546 441 496 542 444 511 530 443 521 523 444 527 512 445 534 506 459 546 484 475 560 464 484 552 449 494 549 447 510 541 454 529 536 450 532 520 454 538 510 466 559 494 487 568 471 510 563 471 535 545 469 555 510 486 574 479 512 574 464 521 554 457 534 526 456 548 490 471 548 450 479 522 420 481 491 417 509 453 436 517 427 455 513 407 467 487 410 495 461 425 519 438 452 517 416 469 506 416 499 476 435 527 448 459 527 424 477 510 425 502 478 441 530 448 463 532 428 484 520 429 509 498 445 538 468 468 548 440 488 536 439 515 522 441 526 490 457 546 462 488 548 446 510 529 449 535 510 467 554 473 490 556 458 513 551 454 528 525 456 545 499 478 558 465 498 555 450 520 543 454 540 517 457 551 498 490 575 475 514 570 462 531 545 461 545 516 467 559 483 494 567 461 519 560 466 540 539 467 556 501 472 559 492 484 569 488 489 571 474 491 562 457 497 550 445 506 539 444 516 532 446 519 519 440 519 511 441 524 490 446 538 464 458 543 456 472 541 439 485 537 435 493 529 433 508 520 436 516 517 442 525 511 441 526 493 456 545 477 470 552 460 484 544 439 489 535 428 490 517 430 503 508 436 522 491 448 534 473 459 540 452 472 543 438 489 553 438 497 539 429 508 521 437 523 514 442 527 502 447 543 477 471 550 447 497 539 433 517 520 441 533 499 463 552 463 486 553 444 510 531 436 526 498 451 540 465 469 538 432 482 523 419 495 498 421 518 478 449 535 445 469 537 423 485 519 421 502 488 440 537 461 465 544 437 487 535 428 505 509 436 529 478 462 553 447 487 552 441 515 547 456 549 533 473 576 504 504 588 481 530 582 478 563 562 488 590 532 517 604 508 536 600 489 548 572 469 552 530 463 557 478 471 551 439 488 530 419 490 503 425 518 472 439 526 438 462 524 416 476 509 409 492 477 423 520 454 454 536 425 473 522 419 503 504 435 530 476 459 541 445 484 540 435 506 523 442 530 495 468 559 467 495 570 461 525 558 460 532 560 463 526 558 457 523 554 450 519 549 443 518 536 440 522 518 439 527 509 447 542 490 463 551 463 480 552 447 492 548 440 499 533 432 510 518 434 516 512 430 511 491 439 528 468 445 530 448 454 526 420 457 516 411 469 509 410 480 498 414 503 481 426 520 466 436 533 452 455 535 436 468 532 429 488 529 429 501 520 435 515 520 444 527 516 446 533 508 462 554 497 485 572 482 505 572 468 508 559 457 528 537 454 546 511 476 563 469 498 568 455 513 548 448 528 520 448 543 499 479 570 464 498 557 450 518 542 451 536 520 453 547 483 473 559 458 501 547 444 518 528 446 537 504 462 554 463 484 550 446 509 533 445 539 516 457 549 486 480 567 458 503 556 448 523 535 456 550 504 479 568 475 507 566 461 533 550 455 548 514 467 566 484 492 571 468 523 570 483 574 564 517 618 563 558 651 560 591 660 554 624 638 565 651 607 570 659 578 585 661 550 589 637 532 605 598 523 610 550 519 607 515 519 600 486 516 576 463 522 546 453 534 510 461 551 466 476 542 438 490 525 424 510 493 441 536 466 469 551 445 497 537 439 524 531 445 525 532 439 514 534 437 507 529 443 522 520 443 534 514 443 535 507 457 550 484 474 561 466 495 564 459 508 550 447 510 532 440 525 523 449 540 513 446 537 505 459 547 481 474 555 459 488 551 442 493 543 439 501 524 432 512 518 434 517 515 435 524 509 447 534 494 456 546 469 476 556 455 493 558 451 503 545 441 510 534 443 524 521 442 526 509 445 539 497 457 550 472 477 555 455 494 560 456 519 556 462 539 536 474 569 508 502 591 487 525 580 478 555 568 489 580 534 504 594 508 529 601 496 551 587 491 573 553 499 592 520 510 597 490 527 580 471 544 553 471 558 512 477 566 472 491 557 449 512 542 455 533 526 466 564 499 496 572 466 512 563 458 525 539 457 543 500 466 555 463 486 547 442 505 525 440 523 489 442 531 449 462 536 437 488 528 436 517 513 444 537 490 466 557 464 494 562 454 516 548 457 540 521 454 547 485 470 553 447 486 543 438 506 521 440 530 497 458 548 460 483 552 445 501 530 441 525 504 458 550 472 488 567 462 523 564 470 556 550 487 581 518 502 587 490 522 580 469 536 557 470 562 531 490 580 524 491 579 513 487 577 507 492 575 487 499 572 464 505 563 457 511 550 454 529 543 455 530 519 446 527 503 448 540 477 456 541 454 461 534 429 463 520 419 470 507 416 488 488 420 509 472 436 518 443 434 517 427 445 523 420 457 510 409 467 496 408 484 483 419 503 457 430 518 444 442 525 426 452 519 417 467 522 416 481 515 423 494 512 430 508 503 442 532 502 462 552 485 482 563 468 500 564 460 514 554 459 536 539 468 561 508 490 578 474 509 565 459 525 537 456 553 506 480 571 480 510 571 469 529 553 467 556 525 487 586 500 513 592 491 531 582 478 550 556 482 575 525 501 589 492 522 587 471 529 557 461 544 524 467 559 486 488 564 458 504 548 453 537 532 466 557 497 483 568 473 512 569 461 523 540 446 530 503 460 547 457 470 539 436 486 518 416 488 490 423 516 455 438 520 420 452 511 405 472 495 415 503 466 437 531 444 463 526 416 471 505 423 507 468 435 523 440 459 523 420 478 512 413 485 484 421 506 430 425 498 388 425 460 359 429 402 355 441 363 365 436 325 367 412 319 386 381 323 414 351 341 424 334 361 437 341 384 452 351 396 462 362 412 473 371 433 469 381 458 457 394 489 447 429 520 450 458 545 447 485 551 453 505 552 458 531 555 466 545 547 479 560 535 489 584 533 502 590 519 513 598 507 523 601 509 538 604 497 547 596 488 550 576 481 553 556 470 545 526 453 536 502 466 554 478 480 558 463 492 552 444 496 547 443 515 542 455 526 535 455 536 521 447 532 503 454 548 478 467 547 453 473 543 435 477 512 417 488 477 419 512 451 443 525 426 472 524 425 499 506 444 533 488 474 560 465 499 558 452 519 544 456 543 523 472 569 500 503 584 486 537 582 483 558 557 487 584 527 510 592 496 529 590 479 540 557 474 558 523 480 573 498 506 579 