144 0 97 0 153 0 228 1 76 1 53 3 47 2 84 2 10 2 7 0 184 1 65 0 185 1 15 2 253 2 51 2 117 2 54 0 219 1 98 0 93 0 227 2 193 2 6 2 242 2 108 1 3 1 136 0 95 0 238 2 123 1 230 3 80 2 156 1 52 1 179 0 112 1 7 2 39 1 195 3 115 2 172 1 111 1 216 0 131 1 29 1 196 1 151 3 89 2 147 1 180 1 243 0 155 1 48 1 77 1 92 3 47 2 104 2 11 2 18 0 184 1 71 0 187 1 20 2 254 2 54 2 117 2 56 0 219 1 99 0 94 0 229 2 195 2 8 2 243 2 109 1 4 1 137 0 95 0 238 2 125 1 232 3 81 2 157 1 52 1 179 0 112 1 7 2 41 1 197 3 116 2 173 1 111 1 216 0 132 1 29 1 197 1 151 3 89 2 147 1 182 1 245 0 156 1 49 1 75 1 91 3 46 2 104 2 12 2 18 0 185 1 71 0 187 1 19 2 253 2 54 2 119 2 56 0 219 1 100 0 95 0 229 2 195 2 8 2 245 2 111 1 4 1 138 0 95 0 239 2 125 1 232 3 80 2 157 1 52 1 179 0 112 1 7 2 42 1 197 3 116 2 173 1 111 1 217 0 132 1 30 1 198 1 152 3 90 2 148 1 181 1 245 0 156 1 48 1 80 1 94 3 48 2 106 2 9 2 18 0 184 1 70 0 192 1 22 3 0 2 56 2 114 2 55 0 218 1 98 0 95 0 229 2 196 2 8 2 239 2 107 1 2 1 135 0 94 0 237 2 125 1 231 3 78 2 155 1 51 1 178 0 111 1 6 2 41 1 196 3 115 2 172 1 109 1 215 0 131 1 28 1 199 1 152 3 90 2 148 1 179 1 243 0 155 1 48 1 79 1 93 3 48 2 105 2 8 2 17 0 184 1 70 0 191 1 21 2 255 2 55 2 114 2 54 0 218 1 98 0 96 0 229 2 196 2 8 2 239 2 108 1 2 1 136 0 94 0 238 2 126 1 232 3 78 2 155 1 50 1 177 0 111 1 6 2 44 1 198 3 116 2 173 1 108 1 215 0 131 1 28 1 200 1 153 3 90 2 148 1 180 1 244 0 155 1 48 1 80 1 94 3 48 2 106 2 8 2 17 0 183 1 70 0 193 1 23 3 0 2 56 2 115 2 56 0 218 1 99 0 96 0 230 2 198 2 10 2 240 2 109 1 2 1 136 0 94 0 238 2 128 1 233 3 78 2 155 1 50 1 178 0 111 1 6 2 45 1 198 3 117 2 173 1 109 1 216 0 131 1 29 1 201 1 153 3 91 2 149 1 179 1 243 0 155 1 48 1 83 1 95 3 49 2 107 2 6 2 17 0 183 1 70 0 194 1 24 3 1 2 57 2 112 2 54 0 217 1 98 0 97 0 230 2 199 2 10 2 239 2 108 1 2 1 136 0 94 0 238 2 128 1 233 3 77 2 155 1 50 1 177 0 111 1 6 2 45 1 199 3 116 2 173 1 108 1 215 0 131 1 28 1 204 1 155 3 92 2 150 1 177 1 243 0 154 1 48 1 86 1 97 3 51 2 108 2 7 2 17 0 183 1 70 0 197 1 25 3 2 2 58 2 112 2 54 0 217 1 98 0 98 0 230 2 199 2 11 2 237 2 107 1 1 1 135 0 94 0 237 2 129 1 234 3 77 2 155 1 50 1 177 0 111 1 6 2 47 1 199 3 116 2 173 1 106 1 213 0 130 1 28 1 205 1 155 3 92 2 150 1 177 1 243 0 154 1 47 1 85 1 96 3 50 2 108 2 5 2 16 0 183 1 70 0 196 1 24 3 1 2 57 2 111 2 53 0 217 1 97 0 97 0 230 2 199 2 10 2 237 2 107 1 1 1 135 0 93 0 237 2 130 1 234 3 75 2 154 1 48 1 176 0 110 1 5 2 48 1 200 3 116 2 173 1 106 1 214 0 130 1 28 1 205 1 155 3 92 2 150 1 176 1 242 0 154 1 47 1 90 1 99 3 52 2 110 2 4 2 16 0 182 1 70 0 201 1 27 3 3 2 59 2 109 2 53 0 216 1 97 0 99 0 231 2 201 2 12 2 234 2 106 1 0 1 134 0 94 0 237 2 132 1 235 3 77 2 155 1 49 1 177 0 111 1 6 2 49 1 201 3 116 2 174 1 106 1 214 0 130 1 28 1 209 1 157 3 94 2 151 1 174 1 242 0 153 1 47 1 92 1 100 3 53 2 110 2 4 2 17 0 182 1 70 0 205 1 30 3 5 2 61 2 109 2 54 0 216 1 97 0 101 0 232 2 203 2 13 2 234 2 106 1 0 1 135 0 93 0 237 2 134 1 236 3 74 2 154 1 47 1 176 0 110 1 5 2 52 1 202 3 116 2 174 1 105 1 213 0 130 1 27 1 212 1 159 3 95 2 153 1 174 1 242 0 153 1 47 1 94 1 101 3 54 2 111 2 2 2 16 0 182 1 69 0 207 1 31 3 5 2 62 2 107 2 53 0 215 1 97 0 101 0 232 2 203 2 13 2 229 2 103 0 254 1 132 0 93 0 236 2 136 1 237 3 70 2 151 1 45 1 173 0 109 1 3 2 55 1 203 3 115 2 173 1 101 1 211 0 128 1 26 1 215 1 160 3 96 2 154 1 170 1 240 0 152 1 46 1 99 1 104 3 55 2 113 1 251 2 13 0 179 1 67 0 215 1 34 3 8 2 64 2 98 2 49 0 213 1 94 0 103 0 233 2 207 2 15 2 220 2 98 0 251 1 129 0 92 0 234 2 139 1 238 3 68 2 150 1 43 1 172 0 109 1 3 2 58 1 204 3 115 2 173 1 99 1 210 0 128 1 25 1 218 1 161 3 97 2 155 1 167 1 240 0 151 1 45 1 103 1 106 3 57 2 115 1 251 2 14 0 179 1 67 0 217 1 35 3 9 2 65 2 98 2 50 0 212 1 94 0 105 0 234 2 208 2 16 2 222 2 100 0 252 1 130 0 92 0 234 2 140 1 238 3 69 2 151 1 44 1 173 0 109 1 3 2 58 1 205 3 116 2 174 1 101 1 211 0 129 1 26 1 218 1 162 3 97 2 155 1 169 1 240 0 152 1 46 1 101 1 105 3 57 2 114 1 251 2 13 0 179 1 67 0 220 1 37 3 10 2 66 2 98 2 50 0 213 1 94 0 107 0 235 2 209 2 18 2 222 2 100 0 251 1 130 0 92 0 234 2 143 1 240 3 65 2 149 1 41 1 170 0 108 1 2 2 63 1 207 3 115 2 173 1 97 1 209 0 127 1 25 1 224 1 165 3 99 2 157 1 165 1 239 0 150 1 45 1 111 1 109 3 59 2 117 1 244 2 11 0 177 1 65 0 230 1 41 3 13 2 69 2 89 2 47 0 210 1 92 0 111 0 237 2 213 2 20 2 211 2 95 0 248 1 127 0 90 0 232 2 147 1 241 3 61 2 147 1 39 1 169 0 107 1 1 2 67 1 208 3 114 2 173 1 94 1 207 0 126 1 24 1 230 1 167 3 101 2 159 1 159 1 237 0 148 1 43 1 117 1 112 3 62 2 119 1 239 2 9 0 175 1 64 0 236 1 45 3 15 2 71 2 85 2 45 0 208 1 91 0 113 0 238 2 215 2 21 2 208 2 93 0 247 1 126 0 90 0 231 2 148 1 241 3 59 2 146 1 38 1 168 0 107 1 0 2 70 1 210 3 114 2 173 1 93 1 207 0 126 1 24 1 230 1 167 3 101 2 159 1 159 1 237 0 148 1 43 1 116 1 112 3 62 2 119 1 239 2 9 0 175 1 64 0 236 1 45 3 15 2 72 2 84 2 45 0 208 1 91 0 114 0 238 2 216 2 22 2 207 2 93 0 247 1 125 0 90 0 231 2 151 1 242 3 55 2 144 1 36 1 166 0 106 0 255 2 73 1 211 3 113 2 173 1 91 1 206 0 125 1 23 1 234 1 169 3 103 2 161 1 156 1 235 0 147 1 42 1 126 1 117 3 65 2 123 1 233 2 7 0 173 1 63 0 250 1 52 3 20 2 77 2 76 2 42 0 206 1 89 0 121 0 242 2 221 2 27 2 195 2 88 0 243 1 122 0 89 0 230 2 156 1 245 3 49 2 141 1 32 1 163 0 105 0 253 2 78 1 213 3 111 2 172 1 85 1 202 0 123 1 21 1 243 1 173 3 106 2 164 1 150 1 233 0 145 1 41 1 133 1 120 3 68 2 125 1 229 2 6 0 172 1 62 1 1 1 55 3 22 2 79 2 70 2 40 0 204 1 87 0 124 0 243 2 223 2 27 2 190 2 85 0 241 1 120 0 88 0 229 2 158 1 245 3 46 2 139 1 30 1 162 0 104 0 253 2 81 1 214 3 109 2 171 1 83 1 201 0 122 1 20 1 247 1 175 3 107 2 164 1 148 1 232 0 144 1 40 1 136 1 122 3 68 2 126 1 226 2 5 0 171 1 61 1 1 1 55 3 22 2 79 2 66 2 38 0 202 1 86 0 127 0 244 2 225 2 29 2 186 2 84 0 240 1 119 0 88 0 229 2 162 1 247 3 42 2 137 1 28 1 160 0 103 0 252 2 86 1 216 3 108 2 171 1 81 1 200 0 122 1 19 1 250 1 176 3 108 2 165 1 145 1 232 0 143 1 39 1 143 1 125 3 71 2 129 1 221 2 3 0 169 1 60 1 13 1 61 3 26 2 83 2 61 2 37 0 201 1 85 0 133 0 248 2 229 2 32 2 178 2 80 0 238 1 116 0 87 0 228 2 167 1 249 3 36 2 134 1 25 1 157 0 102 0 250 2 91 1 218 3 106 2 170 1 78 1 198 0 121 1 18 2 1 1 180 3 110 2 168 1 141 1 230 0 142 1 38 1 151 1 130 3 74 2 132 1 219 2 3 0 169 1 59 1 20 1 64 3 29 2 85 2 56 2 35 0 199 1 83 0 139 0 251 2 232 2 35 2 174 2 79 0 236 1 116 0 87 0 228 2 169 1 250 3 35 2 134 1 24 1 157 0 102 0 250 2 94 1 220 3 105 2 170 1 76 1 196 0 120 1 17 2 5 1 181 3 111 2 168 1 139 1 229 0 141 1 38 1 154 1 131 3 75 2 133 1 214 2 1 0 167 1 58 1 24 1 66 3 30 2 86 2 52 2 33 0 198 1 82 0 140 0 251 2 233 2 35 2 167 2 76 0 234 1 113 0 87 0 227 2 171 1 251 3 29 2 131 1 22 1 154 0 101 0 248 2 97 1 221 3 103 2 169 1 74 1 195 0 119 1 16 2 7 1 182 3 112 2 169 1 136 1 228 0 140 1 37 1 158 1 133 3 77 2 135 1 209 1 255 0 165 1 56 1 32 1 70 3 33 2 89 2 46 2 31 0 196 1 81 0 147 0 255 2 237 2 39 2 159 2 73 0 232 1 111 0 88 0 227 2 176 1 253 3 22 2 127 1 18 1 151 0 100 0 246 2 101 1 222 3 100 2 167 1 70 1 192 0 118 1 15 2 13 1 185 3 114 2 170 1 132 1 226 0 139 1 35 1 166 1 137 3 79 2 137 1 207 1 255 0 165 1 56 1 40 1 75 3 36 2 92 2 44 2 32 0 195 1 80 0 151 1 1 2 239 2 40 2 156 2 71 0 231 1 110 0 88 0 227 2 177 1 254 3 21 2 127 1 18 1 151 0 100 0 246 2 105 1 224 3 99 2 167 1 68 1 192 0 117 1 14 2 19 1 188 3 115 2 171 1 129 1 225 0 138 1 35 1 170 1 138 3 80 2 138 1 204 1 253 0 163 1 55 1 46 1 78 3 37 2 95 2 38 2 29 0 193 1 79 0 158 1 5 2 242 2 43 2 149 2 69 0 229 1 108 0 89 0 227 2 181 2 0 3 15 2 124 1 15 1 148 0 99 0 244 2 109 1 225 3 97 2 166 1 67 1 190 0 117 1 13 2 21 1 189 3 115 2 172 1 127 1 224 0 137 1 34 1 174 1 141 3 82 2 140 1 200 1 252 0 162 1 54 1 51 1 80 3 39 2 96 2 34 2 28 0 192 1 78 0 164 1 8 2 245 2 46 2 146 2 68 0 228 1 108 0 90 0 229 2 186 2 3 3 11 2 122 1 13 1 147 0 98 0 244 2 112 1 228 3 94 2 165 1 63 1 188 0 115 1 12 2 26 1 191 3 116 2 173 1 125 1 223 0 136 1 34 1 182 1 145 3 84 2 143 1 197 1 251 0 161 1 53 1 56 1 82 3 41 2 98 2 30 2 26 0 190 1 76 0 170 1 11 2 247 2 48 2 142 2 67 0 227 1 106 0 91 0 229 2 187 2 4 3 9 2 121 1 12 1 146 0 98 0 243 2 115 1 228 3 92 2 163 1 62 1 187 0 115 1 11 2 30 1 193 3 117 2 173 1 123 1 223 0 136 1 33 1 184 1 146 3 85 2 143 1 196 1 251 0 160 1 53 1 62 1 85 3 43 2 100 2 26 2 25 0 189 1 76 0 174 1 13 2 249 2 50 2 137 2 65 0 225 1 105 0 92 0 229 2 189 2 5 3 5 2 119 1 11 1 144 0 97 0 242 2 117 1 229 3 91 2 162 1 60 1 185 0 114 1 11 2 31 1 193 3 116 2 173 1 120 1 221 0 135 1 32 1 189 1 148 3 87 2 145 1 192 1 249 0 159 1 52 1 69 1 89 3 45 2 103 2 24 2 25 0 189 1 76 0 180 1 17 2 251 2 52 2 132 2 63 0 224 1 104 0 94 0 230 2 193 2 8 2 255 2 117 1 8 1 143 0 96 0 242 2 122 1 232 3 87 2 161 1 57 1 184 0 113 1 9 2 36 1 195 3 117 2 173 1 115 1 219 0 133 1 30 1 195 1 151 3 89 2 147 1 186 1 247 0 158 1 50 1 74 1 92 3 47 2 105 2 16 2 21 0 186 1 73 0 186 1 19 2 254 2 54 2 123 2 59 0 221 1 101 0 94 0 229 2 194 2 7 2 247 2 112 1 5 1 139 0 95 0 239 2 124 1 232 3 84 2 159 1 54 1 181 0 112 1 8 2 41 1 198 3 117 2 174 1 113 1 218 0 133 1 30 1 197 1 152 3 90 2 148 1 183 1 246 0 156 1 49 1 79 1 93 3 48 2 106 2 13 2 20 0 185 1 72 0 192 1 23 3 0 2 56 2 120 2 58 0 219 1 100 0 96 0 230 2 197 2 10 2 244 2 111 1 4 1 138 0 95 0 239 2 127 1 234 3 81 2 158 1 53 1 180 0 112 1 7 2 45 1 199 3 118 2 174 1 111 1 217 0 132 1 29 1 203 1 155 3 92 2 150 1 179 1 244 0 155 1 48 1 85 1 96 3 51 2 108 2 8 2 18 0 184 1 71 0 197 1 25 3 2 2 58 2 114 2 56 0 218 1 99 0 99 0 231 2 200 2 12 2 238 2 108 1 2 1 136 0 94 0 238 2 131 1 235 3 79 2 157 1 51 1 179 0 111 1 7 2 49 1 201 3 118 2 175 1 108 1 216 0 131 1 29 1 207 1 156 3 93 2 151 1 177 1 244 0 155 1 48 1 89 1 99 3 52 2 110 2 7 2 18 0 183 1 70 0 203 1 29 3 4 2 61 2 111 2 55 0 217 1 98 0 100 0 232 2 202 2 13 2 234 2 106 1 0 1 135 0 94 0 237 2 134 1 236 3 76 2 155 1 48 1 177 0 110 1 6 2 51 1 202 3 116 2 174 1 105 1 214 0 130 1 28 1 211 1 158 3 95 2 153 1 175 1 243 0 153 1 48 1 94 1 101 3 54 2 112 2 2 2 16 0 182 1 69 0 208 1 31 3 6 2 62 2 106 2 53 0 215 1 97 0 102 0 233 2 205 2 14 2 231 2 105 0 255 1 133 0 93 0 236 2 137 1 237 3 72 2 153 1 46 1 175 0 110 1 4 2 56 1 203 3 116 2 174 1 103 1 212 0 129 1 27 1 215 1 160 3 96 2 154 1 171 1 241 0 152 1 46 1 103 1 106 3 57 2 115 1 254 2 15 0 180 1 68 0 218 1 36 3 9 2 66 2 101 2 52 0 214 1 96 0 106 0 235 2 209 2 18 2 222 2 101 0 252 1 131 0 92 0 235 2 142 1 239 3 68 2 151 1 43 1 172 0 108 1 3 2 62 1 206 3 117 2 175 1 99 1 211 0 128 1 26 1 223 1 164 3 99 2 157 1 167 1 240 0 151 1 45 1 108 1 108 3 59 2 116 1 249 2 13 0 179 1 67 0 225 1 40 3 12 2 68 2 94 2 49 0 211 1 94 0 109 0 236 2 211 2 19 2 218 2 99 0 251 1 129 0 91 0 234 2 145 1 240 3 64 2 149 1 41 1 171 0 108 1 2 2 66 1 208 3 115 2 174 1 96 1 209 0 127 1 25 1 228 1 166 3 100 2 159 1 164 1 239 0 150 1 45 1 114 1 112 3 62 2 119 1 243 2 11 0 177 1 66 0 235 1 44 3 15 2 71 2 87 2 46 0 209 1 91 0 113 0 238 2 215 2 22 2 209 2 94 0 248 1 126 0 90 0 232 2 150 1 242 3 58 2 146 1 37 1 167 0 107 1 0 2 71 1 210 3 114 2 173 1 93 1 207 0 126 1 23 1 231 1 168 3 102 2 160 1 157 1 236 0 147 1 42 1 124 1 116 3 64 2 122 1 238 2 9 0 175 1 64 0 246 1 50 3 19 2 75 2 81 2 44 0 207 1 90 0 120 0 242 2 221 2 26 2 201 2 91 0 245 1 124 0 89 0 231 2 156 1 244 3 54 2 144 1 35 1 166 0 105 0 255 2 78 1 214 3 113 2 174 1 89 1 205 0 124 1 22 1 242 1 173 3 105 2 163 1 154 1 236 0 147 1 42 1 133 1 121 3 67 2 126 1 234 2 9 0 174 1 63 0 253 1 54 3 21 2 78 2 76 2 43 0 205 1 89 0 125 0 244 2 223 2 28 2 197 2 90 0 244 1 123 0 89 0 231 2 158 1 246 3 48 2 141 1 31 1 163 0 104 0 253 2 82 1 215 3 110 2 172 1 84 1 202 0 123 1 20 1 247 1 175 3 108 2 165 1 150 1 234 0 145 1 41 1 139 1 124 3 70 2 128 1 227 2 6 0 171 1 61 1 7 1 58 3 24 2 81 2 67 2 40 0 203 1 86 0 129 0 246 2 226 2 30 2 187 2 85 0 240 1 119 0 88 0 229 2 163 1 247 3 42 2 137 1 28 1 160 0 103 0 252 2 87 1 217 3 109 2 171 1 81 1 200 0 122 1 19 1 253 1 178 3 110 2 167 1 144 1 232 0 143 1 39 1 149 1 129 3 73 2 131 1 220 2 3 0 169 1 59 1 19 1 64 3 29 2 85 2 59 2 36 0 200 1 84 0 139 0 251 2 233 2 35 2 175 2 80 0 237 1 116 0 88 0 228 2 170 1 251 3 36 2 134 1 25 1 157 0 102 0 250 2 94 1 220 3 106 2 170 1 76 1 197 0 120 1 17 2 6 1 182 3 112 2 169 1 140 1 230 0 142 1 38 1 155 1 132 3 75 2 134 1 216 2 2 0 168 1 59 1 28 1 69 3 31 2 88 2 54 2 35 0 199 1 83 0 144 0 254 2 235 2 37 2 169 2 78 0 235 1 115 0 88 0 228 2 172 1 252 3 32 2 132 1 23 1 155 0 101 0 249 2 99 1 222 3 104 2 170 1 74 1 196 0 119 1 17 2 10 1 184 3 113 2 170 1 137 1 229 0 141 1 37 1 160 1 134 3 77 2 135 1 211 1 255 0 165 1 57 1 36 1 73 3 34 2 91 2 46 2 32 0 196 1 81 0 148 1 0 2 237 2 39 2 159 2 73 0 232 1 111 0 88 0 228 2 177 1 254 3 23 2 128 1 18 1 151 0 100 0 246 2 104 1 224 3 100 2 167 1 70 1 192 0 118 1 15 2 16 1 187 3 115 2 171 1 130 1 226 0 138 1 35 1 171 1 139 3 81 2 139 1 205 1 254 0 164 1 55 1 44 1 76 3 37 2 94 2 39 2 29 0 193 1 79 0 157 1 4 2 241 2 43 2 151 2 69 0 229 1 109 0 88 0 227 2 180 1 255 3 16 2 124 1 16 1 149 0 99 0 245 2 109 1 226 3 98 2 166 1 67 1 191 0 117 1 14 2 23 1 190 3 116 2 173 1 128 1 225 0 138 1 35 1 173 1 141 3 81 2 140 1 200 1 252 0 162 1 54 1 50 1 79 3 39 2 95 2 35 2 28 0 192 1 78 0 161 1 6 2 244 2 44 2 146 2 68 0 228 1 108 0 89 0 228 2 183 2 1 3 12 2 122 1 14 1 147 0 98 0 244 2 111 1 226 3 95 2 164 1 64 1 188 0 116 1 12 2 26 1 190 3 116 2 172 1 125 1 223 0 137 1 33 1 178 1 143 3 84 2 142 1 196 1 250 0 161 1 53 1 59 1 84 3 42 2 99 2 28 2 25 0 190 1 76 0 171 1 11 2 248 2 48 2 138 2 65 0 225 1 105 0 91 0 229 2 189 2 5 3 4 2 119 1 10 1 144 0 97 0 242 2 117 1 229 3 91 2 163 1 60 1 186 0 114 1 11 2 32 1 193 3 117 2 173 1 119 1 221 0 135 1 32 1 188 1 147 3 87 2 145 1 189 1 248 0 159 1 51 1 67 1 88 3 45 2 102 2 22 2 24 0 188 1 75 0 179 1 16 2 251 2 52 2 130 2 62 0 223 1 103 0 93 0 229 2 192 2 7 2 254 2 116 1 8 1 142 0 96 0 241 2 124 1 232 3 87 2 161 1 57 1 184 0 113 1 10 2 38 1 196 3 117 2 174 1 116 1 219 0 134 1 31 1 193 1 150 3 89 2 147 1 186 1 247 0 158 1 50 1 72 1 90 3 46 2 103 2 17 2 21 0 187 1 73 0 183 1 18 2 253 2 53 2 126 2 60 0 221 1 102 0 94 0 229 2 194 2 7 2 250 2 113 1 6 1 140 0 95 0 240 2 123 1 232 3 82 2 158 1 53 1 180 0 112 1 8 2 40 1 197 3 117 2 174 1 113 1 218 0 133 1 30 1 197 1 152 3 90 2 148 1 184 1 246 0 157 1 50 1 81 1 95 3 50 2 107 2 13 2 21 0 185 1 73 0 193 1 24 3 0 2 57 2 119 2 58 0 219 1 100 0 98 0 232 2 200 2 11 2 243 2 111 1 3 1 138 0 95 0 239 2 132 1 236 3 80 2 158 1 51 1 179 0 111 1 7 2 48 1 200 3 117 2 174 1 108 1 215 0 131 1 28 1 209 1 158 3 94 2 153 1 176 1 244 0 154 1 48 1 93 1 101 3 54 2 111 2 5 2 18 0 182 1 71 0 206 1 31 3 6 2 62 2 110 2 55 0 216 1 98 0 102 0 233 2 204 2 14 2 235 2 107 1 0 1 135 0 93 0 237 2 136 1 237 3 76 2 155 1 48 1 177 0 110 1 6 2 54 1 203 3 118 2 175 1 105 1 214 0 130 1 28 1 211 1 158 3 95 2 152 1 174 1 242 0 154 1 47 1 96 1 102 3 55 2 112 2 3 2 17 0 182 1 70 0 211 1 33 3 7 2 63 2 106 2 54 0 215 1 97 0 104 0 234 2 206 2 15 2 230 2 105 0 254 1 133 0 93 0 236 2 139 1 238 3 70 2 151 1 44 1 173 0 109 1 3 2 58 1 205 3 116 2 174 1 101 1 211 0 128 1 26 1 219 1 162 3 98 2 155 1 168 1 240 0 151 1 45 1 106 1 107 3 58 2 116 1 250 2 13 0 179 1 67 0 224 1 39 3 11 2 67 2 94 2 49 0 211 1 93 0 107 0 235 2 211 2 18 2 217 2 98 0 250 1 129 0 91 0 233 2 143 1 239 3 64 2 149 1 41 1 171 0 108 1 2 2 65 1 207 3 115 2 174 1 96 1 209 0 127 1 25 1 226 1 165 3 100 2 158 1 163 1 238 0 150 1 44 1 114 1 111 3 61 2 118 1 245 2 12 0 177 1 66 0 232 1 43 3 14 2 70 2 91 2 48 0 210 1 93 0 112 0 238 2 214 2 21 2 214 2 97 0 249 1 128 0 91 0 233 2 149 1 242 3 63 2 149 1 40 1 170 0 107 1 1 2 70 1 210 3 116 2 175 1 95 1 209 0 126 1 24 1 231 1 168 3 101 2 160 1 162 1 239 0 149 1 44 1 118 1 113 3 63 2 120 1 241 2 11 0 176 1 65 0 239 1 47 3 16 2 73 2 85 2 46 0 208 1 91 0 115 0 239 2 217 2 23 2 207 2 94 0 247 1 126 0 90 0 232 2 153 1 243 3 54 2 143 1 35 1 165 0 106 0 255 2 75 1 212 3 112 2 173 1 90 1 205 0 124 1 22 1 238 1 171 3 104 2 162 1 155 1 236 0 146 1 42 1 130 1 119 3 67 2 125 1 232 2 8 0 173 1 63 0 254 1 54 3 21 2 78 2 72 2 41 0 204 1 88 0 123 0 243 2 223 2 28 2 191 2 86 0 242 1 120 0 88 0 229 2 159 1 246 3 46 2 139 1 30 1 161 0 104 0 252 2 82 1 214 3 110 2 171 1 84 1 201 0 122 1 20 1 247 1 175 3 107 2 165 1 147 1 233 0 144 1 40 1 138 1 123 3 69 2 127 1 226 2 5 0 171 1 61 1 5 1 57 3 24 2 80 2 65 2 38 0 202 1 86 0 128 0 245 2 226 2 30 2 186 2 84 0 240 1 119 0 88 0 229 2 163 1 247 3 45 2 139 1 29 1 161 0 104 0 252 2 87 1 217 3 110 2 172 1 82 1 201 0 122 1 20 1 252 1 178 3 109 2 167 1 146 1 233 0 144 1 40 1 144 1 126 3 71 2 130 1 224 2 5 0 171 1 61 1 14 1 62 3 27 2 83 2 64 2 39 0 201 1 86 0 134 0 249 2 230 2 33 2 182 2 83 0 239 1 118 0 88 0 229 2 167 1 249 3 39 2 136 1 26 1 159 0 103 0 251 2 92 1 219 3 108 2 171 1 80 1 199 0 121 1 19 2 2 1 180 3 111 2 168 1 141 1 230 0 142 1 38 1 154 1 131 3 76 2 133 1 216 2 2 0 168 1 58 1 27 1 68 3 31 2 88 2 53 2 35 0 198 1 83 0 142 0 252 2 235 2 37 2 169 2 77 0 235 1 114 0 88 0 228 2 173 1 252 3 30 2 132 1 22 1 155 0 101 0 248 2 98 1 222 3 104 2 169 1 74 1 196 0 119 1 16 2 10 1 184 3 113 2 170 1 136 1 229 0 141 1 37 1 160 1 134 3 77 2 135 1 212 2 0 0 166 1 57 1 32 1 70 3 33 2 90 2 48 2 33 0 197 1 81 0 147 0 255 2 237 2 39 2 163 2 75 0 233 1 113 0 88 0 228 2 174 1 253 3 27 2 130 1 21 1 153 0 101 0 247 2 102 1 223 3 101 2 168 1 70 1 193 0 118 1 15 2 16 1 186 3 115 2 171 1 133 1 227 0 140 1 36 1 167 1 138 3 79 2 138 1 208 1 255 0 164 1 56 1 41 1 75 3 36 2 93 2 42 2 31 0 195 1 80 0 154 1 3 2 240 2 42 2 154 2 71 0 230 1 110 0 89 0 228 2 180 1 255 3 19 2 126 1 17 1 150 0 99 0 246 2 107 1 225 3 99 2 167 1 68 1 192 0 117 1 14 2 20 1 188 3 116 2 172 1 130 1 226 0 138 1 35 1 175 1 142 3 82 2 141 1 203 1 254 0 163 1 55 1 51 1 80 3 39 2 96 2 37 2 29 0 193 1 79 0 163 1 7 2 244 2 45 2 148 2 69 0 228 1 108 0 90 0 228 2 184 2 2 3 12 2 123 1 14 1 148 0 98 0 244 2 112 1 227 3 96 2 166 1 65 1 189 0 116 1 13 2 27 1 191 3 117 2 174 1 125 1 224 0 137 1 34 1 180 1 144 3 84 2 142 1 198 1 251 0 162 1 53 1 56 1 82 3 41 2 98 2 30 2 26 0 191 1 76 0 170 1 10 2 247 2 48 2 141 2 66 0 226 1 106 0 91 0 228 2 187 2 4 3 8 2 121 1 12 1 146 0 98 0 243 2 116 1 229 3 93 2 164 1 62 1 187 0 115 1 12 2 31 1 193 3 117 2 174 1 121 1 222 0 136 1 33 1 185 1 146 3 86 2 144 1 194 1 250 0 160 1 52 1 66 1 87 3 44 2 101 2 25 2 25 0 189 1 75 0 177 1 15 2 250 2 51 2 134 2 63 0 224 1 104 0 92 0 229 2 191 2 6 3 0 2 117 1 9 1 143 0 96 0 242 2 120 1 231 3 90 2 162 1 59 1 185 0 114 1 10 2 35 1 194 3 117 2 174 1 118 1 220 0 134 1 32 1 191 1 149 3 88 2 146 1 188 1 247 0 158 1 51 1 73 1 91 3 47 2 104 2 20 2 23 0 187 1 74 0 185 1 19 2 253 2 54 2 127 2 61 0 222 1 102 0 95 0 230 2 195 2 8 2 249 2 114 1 6 1 140 0 96 0 240 2 125 1 232 3 86 2 160 1 56 1 183 0 113 1 9 2 41 1 198 3 118 2 175 1 114 1 219 0 133 1 31 1 198 1 153 3 90 2 149 1 185 1 247 0 157 1 50 1 78 1 93 3 48 2 106 2 15 2 21 0 186 1 73 0 191 1 23 3 0 2 57 2 122 2 60 0 220 1 101 0 96 0 230 2 197 2 10 2 247 2 113 1 5 1 140 0 95 0 240 2 128 1 234 3 83 2 159 1 54 1 181 0 112 1 8 2 46 1 199 3 118 2 175 1 112 1 218 0 132 1 30 1 202 1 155 3 92 2 150 1 182 1 246 0 156 1 49 1 86 1 97 3 51 2 109 2 11 2 20 0 184 1 72 0 201 1 28 3 3 2 60 2 116 2 58 0 218 1 100 0 99 0 232 2 201 2 12 2 240 2 109 1 2 1 136 0 94 0 238 2 133 1 236 3 78 2 156 1 50 1 178 0 111 1 6 2 51 1 202 3 118 2 175 1 108 1 215 0 130 1 29 1 212 1 159 3 95 2 153 1 176 1 244 0 154 1 48 1 95 1 102 3 54 2 112 2 3 2 17 0 182 1 70 0 208 1 31 3 6 2 62 2 106 2 53 0 215 1 97 0 103 0 233 2 205 2 15 2 231 2 105 0 255 1 134 0 93 0 236 2 137 1 237 3 74 2 154 1 47 1 176 0 110 1 5 2 55 1 204 3 117 2 175 1 103 1 213 0 129 1 27 1 216 1 161 3 96 2 155 1 171 1 242 0 153 1 47 1 101 1 105 3 57 2 114 1 254 2 15 0 180 1 69 0 217 1 36 3 9 2 65 2 101 2 52 0 214 1 96 0 105 0 235 2 208 2 17 2 226 2 103 0 253 1 132 0 92 0 235 2 141 1 239 3 70 2 152 1 44 1 173 0 109 1 3 2 61 1 206 3 117 2 175 1 101 1 212 0 129 1 26 1 221 1 163 3 98 2 156 1 169 1 241 0 151 1 46 1 110 1 110 3 60 2 118 1 250 2 15 0 179 1 68 0 228 1 41 3 13 2 69 2 96 2 51 0 212 1 95 0 111 0 238 2 213 2 21 2 219 2 100 0 250 1 129 0 91 0 234 2 148 1 242 3 64 2 149 1 40 1 171 0 108 1 2 2 68 1 209 3 116 2 175 1 96 1 209 0 127 1 25 1 230 1 168 3 102 2 160 1 162 1 239 0 149 1 44 1 120 1 115 3 63 2 121 1 240 2 11 0 176 1 65 0 240 1 47 3 17 2 73 2 84 2 45 0 208 1 91 0 118 0 240 2 219 2 25 2 205 2 93 0 246 1 125 0 90 0 231 2 153 1 243 3 57 2 145 1 36 1 167 0 106 0 255 2 76 1 212 3 113 2 174 1 89 1 205 0 125 1 22 1 240 1 172 3 105 2 163 1 155 1 236 0 147 1 42 1 127 1 118 3 66 2 124 1 235 2 9 0 174 1 64 0 251 1 53 3 20 2 77 2 78 2 44 0 206 1 90 0 122 0 243 2 222 2 27 2 200 2 91 0 244 1 124 0 89 0 231 2 157 1 245 3 52 2 143 1 34 1 165 0 105 0 254 2 81 1 215 3 112 2 173 1 87 1 204 0 124 1 22 1 245 1 175 3 107 2 165 1 152 1 236 0 146 1 42 1 135 1 122 3 69 2 127 1 231 2 8 0 173 1 63 1 6 1 58 3 24 2 81 2 73 2 43 0 205 1 89 0 127 0 245 2 225 2 29 2 192 2 87 0 242 1 121 0 88 0 230 2 161 1 247 3 46 2 140 1 30 1 162 0 104 0 253 2 85 1 216 3 111 2 173 1 84 1 202 0 123 1 21 1 250 1 177 3 109 2 166 1 147 1 233 0 144 1 40 1 143 1 126 3 71 2 129 1 224 2 5 0 170 1 60 1 14 1 62 3 27 2 83 2 65 2 39 0 202 1 86 0 133 0 248 2 229 2 33 2 180 2 81 0 238 1 117 0 87 0 228 2 167 1 249 3 41 2 137 1 27 1 159 0 103 0 251 2 90 1 218 3 108 2 172 1 79 1 199 0 121 1 19 2 1 1 180 3 111 2 168 1 143 1 231 0 143 1 39 1 149 1 128 3 73 2 131 1 219 2 3 0 169 1 59 1 19 1 64 3 29 2 85 2 58 2 36 0 200 1 84 0 136 0 249 2 230 2 34 2 174 2 79 0 237 1 115 0 87 0 228 2 168 1 250 3 35 2 134 1 24 1 157 0 102 0 249 2 95 1 220 3 105 2 170 1 76 1 196 0 120 1 17 2 5 1 181 3 111 2 168 1 139 1 230 0 142 1 38 1 154 1 131 3 75 2 133 1 215 2 1 0 167 1 58 1 29 1 69 3 32 2 89 2 53 2 35 0 198 1 83 0 144 0 254 2 236 2 38 2 168 2 77 0 234 1 114 0 88 0 228 2 174 1 253 3 29 2 131 1 21 1 154 0 101 0 248 2 100 1 222 3 103 2 169 1 73 1 195 0 119 1 16 2 10 1 184 3 113 2 170 1 134 1 227 0 139 1 36 1 164 1 136 3 78 2 137 1 210 2 0 0 166 1 57 1 36 1 72 3 34 2 91 2 45 2 31 0 195 1 80 0 149 0 255 2 238 2 39 2 158 2 72 0 231 1 110 0 88 0 227 2 177 1 254 3 23 2 128 1 19 1 152 0 100 0 247 2 104 1 224 3 101 2 168 1 69 1 192 0 117 1 14 2 19 1 188 3 115 2 172 1 131 1 227 0 139 1 36 1 169 1 139 3 80 2 139 1 206 1 254 0 164 1 56 1 44 1 76 3 37 2 94 2 41 2 31 0 194 1 80 0 155 1 3 2 240 2 42 2 154 2 71 0 230 1 110 0 89 0 228 2 180 2 0 3 19 2 126 1 17 1 150 0 99 0 246 2 107 1 225 3 99 2 167 1 68 1 192 0 117 1 14 2 19 1 188 3 115 2 172 1 130 1 226 0 138 1 35 1 170 1 139 3 81 2 139 1 204 1 253 0 163 1 55 1 49 1 79 3 39 2 95 2 38 2 30 0 193 1 79 0 159 1 5 2 242 2 43 2 149 2 69 0 229 1 108 0 89 0 228 2 183 2 1 3 15 2 124 1 15 1 148 0 99 0 245 2 109 1 226 3 97 2 166 1 66 1 190 0 116 1 13 2 23 1 189 3 116 2 172 1 127 1 224 0 137 1 34 1 177 1 142 3 83 2 141 1 200 1 252 0 162 1 54 1 54 1 82 3 40 2 98 2 34 2 28 0 192 1 78 0 166 1 9 2 246 2 47 2 146 2 69 0 228 1 108 0 90 0 228 2 185 2 3 3 12 2 123 1 14 1 148 0 98 0 244 2 113 1 228 3 96 2 165 1 64 1 189 0 116 1 13 2 27 1 192 3 117 2 173 1 125 1 224 0 137 1 34 1 180 1 144 3 84 2 142 1 197 1 251 0 161 1 53 1 56 1 82 3 41 2 98 2 31 2 27 0 191 1 77 0 167 1 9 2 246 2 47 2 142 2 67 0 227 1 106 0 90 0 228 2 185 2 2 3 9 2 121 1 13 1 146 0 98 0 243 2 114 1 228 3 93 2 164 1 63 1 188 0 115 1 12 2 29 1 192 3 117 2 174 1 123 1 223 0 136 1 33 1 182 1 145 3 85 2 143 1 196 1 250 0 160 1 53 1 63 1 86 3 44 2 101 2 28 2 26 0 190 1 77 0 174 1 14 2 249 2 50 2 136 2 65 0 225 1 105 0 92 0 229 2 190 2 5 3 2 2 118 1 10 1 143 0 97 0 242 2 117 1 229 3 89 2 161 1 59 1 184 0 114 1 10 2 32 1 193 3 117 2 173 1 118 1 220 0 134 1 32 1 189 1 148 3 87 2 145 1 189 1 248 0 159 1 51 1 68 1 88 3 45 2 102 2 22 2 23 0 188 1 74 0 179 1 16 2 252 2 52 2 130 2 62 0 223 1 103 0 93 0 229 2 192 2 7 2 255 2 117 1 8 1 142 0 96 0 241 2 120 1 230 3 89 2 162 1 59 1 184 0 114 1 10 2 36 1 195 3 118 2 174 1 118 1 221 0 134 1 32 1 190 1 148 3 88 2 146 1 191 1 249 0 159 1 52 1 68 1 88 3 45 2 103 2 22 2 24 0 188 1 75 0 180 1 16 2 251 2 52 2 132 2 63 0 223 1 104 0 93 0 229 2 192 2 6 3 0 2 118 1 9 1 143 0 96 0 241 2 122 1 231 3 90 2 163 1 59 1 185 0 114 1 10 2 37 1 196 3 118 2 175 1 118 1 221 0 135 1 32 1 191 1 149 3 88 2 146 1 189 1 248 0 158 1 51 1 72 1 91 3 47 2 104 2 19 2 23 0 187 1 74 0 185 1 19 2 254 2 54 2 127 2 61 0 222 1 102 0 95 0 230 2 195 2 9 2 250 2 114 1 6 1 141 0 96 0 240 2 126 1 233 3 85 2 160 1 55 1 182 0 113 1 8 2 43 1 198 3 118 2 175 1 113 1 218 0 132 1 30 1 202 1 155 3 92 2 150 1 183 1 246 0 157 1 50 1 82 1 96 3 50 2 108 2 12 2 20 0 185 1 72 0 192 1 23 3 0 2 57 2 117 2 57 0 219 1 99 0 96 0 230 2 198 2 10 2 242 2 110 1 3 1 137 0 94 0 238 2 130 1 234 3 82 2 158 1 52 1 180 0 112 1 7 2 45 1 199 3 117 2 174 1 110 1 216 0 132 1 29 1 202 1 154 3 92 2 150 1 181 1 245 0 156 1 49 1 83 1 96 3 50 2 108 2 11 2 20 0 184 1 72 0 194 1 24 3 1 2 57 2 116 2 57 0 218 1 99 0 97 0 230 2 199 2 10 2 242 2 110 1 3 1 137 0 94 0 238 2 130 1 234 3 79 2 156 1 50 1 178 0 111 1 6 2 49 1 200 3 118 2 175 1 109 1 216 0 131 1 29 1 206 1 156 3 94 2 152 1 179 1 245 0 155 1 48 1 92 1 100 3 53 2 111 2 7 2 19 0 183 1 71 0 207 1 31 3 6 2 62 2 113 2 57 0 217 1 99 0 101 0 233 2 204 2 14 2 236 2 108 1 0 1 135 0 94 0 237 2 136 1 237 3 75 2 155 1 48 1 176 0 110 1 5 2 55 1 203 3 118 2 175 1 105 1 214 0 130 1 27 1 216 1 161 3 97 2 155 1 172 1 242 0 153 1 47 1 100 1 104 3 56 2 114 1 255 2 16 0 181 1 69 0 216 1 35 3 8 2 65 2 103 2 53 0 214 1 96 0 106 0 235 2 209 2 17 2 227 2 104 0 254 1 132 0 92 0 235 2 143 1 240 3 73 2 155 1 46 1 175 0 109 1 5 2 62 1 207 3 118 2 176 1 103 1 213 0 129 1 27 1 222 1 164 3 99 2 157 1 170 1 242 0 152 1 47 1 106 1 107 3 59 2 116 1 251 2 15 0 179 1 68 0 225 1 40 3 12 2 68 2 97 2 51 0 212 1 95 0 109 0 237 2 211 2 19 2 223 2 102 0 252 1 131 0 92 0 234 2 143 1 240 3 66 2 150 1 42 1 171 0 108 1 2 2 64 1 207 3 117 2 175 1 99 1 210 0 128 1 26 1 225 1 165 3 100 2 158 1 164 1 239 0 150 1 44 1 117 1 112 3 62 2 120 1 246 2 13 0 178 1 67 0 234 1 44 3 15 2 71 2 91 2 49 0 211 1 93 0 114 0 239 2 216 2 23 2 213 2 97 0 249 1 128 0 91 0 233 2 149 1 242 3 63 2 148 1 39 1 169 0 107 1 1 2 71 1 210 3 116 2 175 1 94 1 208 0 126 1 24 1 232 1 168 3 103 2 160 1 160 1 238 0 149 1 44 1 119 1 114 3 63 2 121 1 241 2 11 0 176 1 65 0 241 1 47 3 17 2 74 2 86 2 47 0 209 1 92 0 115 0 239 2 217 2 23 2 207 2 94 0 247 1 126 0 90 0 232 2 151 1 243 3 60 2 147 1 38 1 169 0 106 1 0 2 74 1 212 3 115 2 175 1 94 1 208 0 126 1 24 1 234 1 169 3 103 2 161 1 160 1 238 0 149 1 44 1 122 1 115 3 64 2 122 1 239 2 10 0 175 1 65 0 242 1 48 3 18 2 74 2 82 2 45 0 208 1 91 0 117 0 240 2 218 2 24 2 204 2 92 0 246 1 124 0 89 0 231 2 153 1 243 3 54 2 144 1 35 1 166 0 105 0 255 2 76 1 212 3 113 2 173 1 90 1 205 0 125 1 22 1 237 1 170 3 104 2 162 1 154 1 235 0 146 1 42 1 129 1 118 3 66 2 124 1 233 2 8 0 173 1 63 0 251 1 52 3 20 2 77 2 75 2 42 0 205 1 88 0 122 0 242 2 222 2 27 2 195 2 88 0 243 1 122 0 88 0 230 2 159 1 246 3 50 2 142 1 32 1 163 0 105 0 254 2 82 1 215 3 111 2 173 1 84 1 202 0 123 1 20 1 246 1 174 3 107 2 165 1 150 1 234 0 145 1 41 1 138 1 123 3 69 2 127 1 229 2 6 0 172 1 62 1 4 1 56 3 23 2 80 2 69 2 40 0 203 1 87 0 127 0 245 2 225 2 29 2 189 2 85 0 241 1 120 0 88 0 229 2 161 1 246 3 47 2 140 1 30 1 162 0 104 0 253 2 85 1 216 3 110 2 172 1 83 1 201 0 122 1 20 1 252 1 177 3 109 2 167 1 148 1 233 0 145 1 40 1 144 1 126 3 72 2 130 1 227 2 6 0 171 1 62 1 13 1 62 3 27 2 83 2 65 2 39 0 202 1 86 0 132 0 247 2 228 2 32 2 184 2 83 0 239 1 118 0 88 0 229 2 165 1 249 3 40 2 137 1 27 1 159 0 103 0 251 2 90 1 218 3 108 2 171 1 80 1 199 0 121 1 18 1 254 1 178 3 110 2 167 1 144 1 231 0 143 1 39 1 151 1 130 3 74 2 132 1 220 2 3 0 169 1 59 1 21 1 65 3 29 2 86 2 58 2 36 0 200 1 84 0 139 0 251 2 233 2 35 2 171 2 78 0 235 1 115 0 87 0 228 2 170 1 251 3 32 2 133 1 23 1 156 0 101 0 249 2 94 1 219 3 104 2 169 1 75 1 196 0 120 1 17 2 5 1 181 3 112 2 169 1 138 1 229 0 141 1 38 1 155 1 131 3 75 2 133 1 215 2 1 0 167 1 58 1 27 1 68 3 31 2 88 2 52 2 34 0 198 1 82 0 142 0 252 2 235 2 37 2 167 2 76 0 234 1 113 0 87 0 227 2 172 1 252 3 29 2 131 1 22 1 154 0 101 0 248 2 100 1 222 3 103 2 169 1 72 1 194 0 118 1 16 2 12 1 184 3 114 2 170 1 135 1 228 0 140 1 37 1 163 1 135 3 78 2 136 1 211 2 0 0 166 1 57 1 36 1 73 3 34 2 91 2 49 2 34 0 197 1 82 0 149 1 0 2 238 2 40 2 163 2 75 0 233 1 112 0 88 0 228 2 175 1 254 3 27 2 130 1 20 1 154 0 101 0 248 2 103 1 224 3 103 2 169 1 72 1 195 0 119 1 16 2 15 1 186 3 115 2 171 1 135 1 229 0 140 1 37 1 166 1 137 3 79 2 138 1 207 1 255 0 164 1 56 1 41 1 75 3 36 2 93 2 44 2 32 0 195 1 81 0 154 1 3 2 240 2 42 2 159 2 74 0 231 1 112 0 88 0 228 2 178 1 255 3 21 2 127 1 18 1 151 0 100 0 246 2 106 1 225 3 101 2 168 1 70 1 192 0 118 1 15 2 18 1 187 3 115 2 172 1 130 1 226 0 139 1 35 1 171 1 140 3 81 2 139 1 207 1 255 0 164 1 56 1 45 1 77 3 37 2 94 2 41 2 31 0 194 1 80 0 156 1 4 2 241 2 43 2 153 2 71 0 230 1 110 0 88 0 227 2 179 1 255 3 20 2 127 1 17 1 150 0 99 0 246 2 106 1 225 3 99 2 167 1 68 1 191 0 117 1 14 2 19 1 187 3 115 2 172 1 130 1 226 0 139 1 35 1 169 1 139 3 80 2 139 1 205 1 254 0 163 1 55 1 46 1 77 3 38 2 95 2 39 2 30 0 193 1 79 0 157 1 4 2 242 2 43 2 151 2 70 0 229 1 109 0 89 0 227 2 181 2 0 3 19 2 127 1 17 1 150 0 99 0 246 2 107 1 226 3 99 2 167 1 68 1 192 0 117 1 14 2 21 1 189 3 116 2 173 1 130 1 226 0 138 1 35 1 174 1 141 3 82 2 140 1 204 1 254 0 164 1 56 1 48 1 79 3 38 2 96 2 39 2 30 0 193 1 79 0 161 1 7 2 244 2 45 2 152 2 72 0 230 1 110 0 90 0 229 2 184 2 2 3 16 2 126 1 16 1 149 0 99 0 245 2 110 1 227 3 98 2 167 1 67 1 191 0 117 1 14 2 24 1 190 3 117 2 173 1 127 1 225 0 137 1 34 1 178 1 143 3 83 2 142 1 201 1 253 0 163 1 54 1 51 1 80 3 39 2 96 2 34 2 27 0 192 1 77 0 162 1 6 2 244 2 45 2 147 2 68 0 228 1 108 0 89 0 228 2 183 2 2 3 14 2 124 1 15 1 148 0 99 0 244 2 111 1 227 3 96 2 166 1 65 1 190 0 116 1 13 2 26 1 191 3 117 2 173 1 125 1 224 0 137 1 34 1 177 1 142 3 83 2 141 1 200 1 252 0 162 1 54 1 55 1 82 3 41 2 98 2 32 2 27 0 191 1 77 0 166 1 8 2 246 2 46 2 145 2 68 0 227 1 107 0 90 0 228 2 185 2 2 3 12 2 123 1 14 1 147 0 98 0 244 2 111 1 226 3 96 2 165 1 65 1 189 0 116 1 12 2 24 1 189 3 116 2 172 1 126 1 224 0 137 1 34 1 178 1 143 3 84 2 142 1 198 1 252 0 162 1 54 1 55 1 82 3 41 2 98 2 32 2 27 0 191 1 77 0 166 1 8 2 246 2 46 2 145 2 68 0 227 1 107 0 90 0 228 2 186 2 3 3 10 2 122 1 13 1 147 0 98 0 244 2 114 1 228 3 95 2 165 1 64 1 189 0 116 1 12 2 28 1 192 3 117 2 174 1 124 1 224 0 136 1 34 1 181 1 144 3 84 2 143 1 197 1 251 0 161 1 53 1 57 1 83 3 41 2 99 2 31 2 27 0 191 1 77 0 167 1 9 2 246 2 47 2 143 2 67 0 227 1 107 0 90 0 228 2 186 2 3 3 12 2 123 1 14 1 147 0 98 0 244 2 113 1 228 3 95 2 165 1 63 1 188 0 116 1 12 2 29 1 192 3 118 2 174 1 125 1 224 0 137 1 34 1 181 1 144 3 84 2 143 1 199 1 252 0 162 1 54 1 59 1 84 3 42 2 99 2 30 2 26 0 190 1 77 0 169 1 10 2 247 2 48 2 140 2 66 0 226 1 106 0 91 0 228 2 187 2 4 3 8 2 121 1 12 1 146 0 98 0 243 2 114 1 228 3 93 2 164 1 63 1 187 0 115 1 11 2 27 1 191 3 117 2 173 1 123 1 223 0 136 1 33 1 182 1 145 3 85 2 143 1 195 1 250 0 161 1 53 1 58 1 83 3 42 2 99 2 28 2 25 0 190 1 76 0 169 1 10 2 247 2 47 2 136 2 64 0 225 1 104 0 91 0 228 2 188 2 4 3 3 2 118 1 10 1 144 0 97 0 242 2 116 1 229 3 91 2 163 1 60 1 186 0 115 1 11 2 31 1 192 3 117 2 173 1 120 1 221 0 135 1 32 1 186 1 146 3 86 2 144 1 193 1 249 0 160 1 52 1 61 1 84 3 43 2 100 2 25 2 24 0 189 1 75 0 171 1 11 2 248 2 48 2 135 2 63 0 224 1 104 0 91 0 227 2 188 2 4 3 5 2 119 1 11 1 144 0 97 0 242 2 117 1 229 3 91 2 163 1 61 1 186 0 115 1 11 2 32 1 193 3 117 2 173 1 120 1 221 0 135 1 32 1 185 1 146 3 86 2 144 1 194 1 250 0 160 1 52 1 64 1 86 3 44 2 101 2 25 2 25 0 189 1 76 0 175 1 13 2 249 2 50 2 134 2 64 0 224 1 104 0 92 0 228 2 189 2 5 3 4 2 119 1 10 1 144 0 97 0 242 2 118 1 230 3 91 2 163 1 61 1 186 0 114 1 11 2 31 1 192 3 117 2 173 1 120 1 221 0 135 1 32 1 186 1 146 3 86 2 144 1 193 1 249 0 160 1 52 1 66 1 87 3 45 2 102 2 24 2 25 0 189 1 75 0 180 1 16 2 251 2 52 2 135 2 65 0 224 1 105 0 93 0 230 2 192 2 7 3 2 2 118 1 10 1 143 0 97 0 242 2 120 1 231 3 90 2 162 1 59 1 185 0 114 1 10 2 35 1 195 3 118 2 174 1 117 1 220 0 134 1 31 1 192 1 150 3 88 2 147 1 188 1 248 0 158 1 51 1 69 1 88 3 46 2 103 2 19 2 22 0 187 1 74 0 180 1 16 2 252 2 52 2 129 2 61 0 222 1 103 0 93 0 229 2 192 2 6 2 253 2 115 1 8 1 141 0 96 0 240 2 121 1 231 3 86 2 160 1 57 1 183 0 113 1 9 2 36 1 195 3 117 2 174 1 117 1 220 0 134 1 31 1 193 1 150 3 88 2 147 1 189 1 248 0 158 1 51 1 70 1 89 3 46 2 103 2 20 2 23 0 187 1 74 0 179 1 15 2 251 2 51 2 129 2 61 0 222 1 103 0 93 0 229 2 192 2 7 2 254 2 116 1 8 1 142 0 96 0 240 2 121 1 231 3 87 2 160 1 57 1 183 0 113 1 9 2 37 1 195 3 117 2 174 1 117 1 219 0 134 1 31 1 192 1 149 3 88 2 146 1 189 1 248 0 158 1 51 1 74 1 91 3 47 2 105 2 20 2 24 0 187 1 74 0 183 1 18 2 253 2 53 2 127 2 61 0 222 1 102 0 94 0 230 2 195 2 8 2 250 2 114 1 6 1 140 0 95 0 240 2 124 1 232 3 86 2 160 1 55 1 182 0 113 1 9 2 39 1 196 3 118 2 174 1 115 1 219 0 133 1 31 1 196 1 151 3 90 2 148 1 185 1 247 0 157 1 50 1 78 1 93 3 48 2 106 2 17 2 22 0 186 1 73 0 186 1 20 2 254 2 54 2 124 2 60 0 221 1 101 0 94 0 229 2 194 2 8 2 248 2 113 1 6 1 140 0 95 0 240 2 124 1 232 3 84 2 159 1 54 1 181 0 112 1 8 2 42 1 198 3 118 2 175 1 114 1 218 0 133 1 30 1 198 1 152 3 90 2 149 1 184 1 246 0 157 1 50 1 76 1 92 3 48 2 105 2 15 2 21 0 186 1 72 0 187 1 20 2 254 2 55 2 123 2 59 0 221 1 101 0 95 0 229 2 196 2 9 2 248 2 113 1 5 1 139 0 95 0 239 2 126 1 233 3 83 2 159 1 54 1 181 0 112 1 8 2 42 1 197 3 118 2 174 1 113 1 218 0 133 1 30 1 197 1 152 3 90 2 148 1 183 1 246 0 157 1 49 1 80 1 94 3 49 2 106 2 12 2 20 0 185 1 72 0 191 1 22 3 0 2 56 2 120 2 58 0 219 1 100 0 97 0 231 2 199 2 11 2 244 2 111 1 4 1 138 0 95 0 239 2 128 1 234 3 82 2 158 1 52 1 180 0 112 1 7 2 46 1 200 3 118 2 175 1 111 1 217 0 132 1 30 1 205 1 156 3 93 2 151 1 180 1 245 0 156 1 49 1 84 1 96 3 51 2 108 2 9 2 19 0 184 1 71 0 194 1 24 3 1 2 57 2 117 2 57 0 218 1 99 0 97 0 230 2 198 2 10 2 242 2 110 1 3 1 137 0 95 0 238 2 130 1 234 3 80 2 157 1 51 1 179 0 111 1 6 2 47 1 200 3 118 2 175 1 110 1 216 0 132 1 29 1 204 1 155 3 92 2 150 1 181 1 245 0 156 1 49 1 86 1 97 3 51 2 109 2 11 2 20 0 184 1 72 0 195 1 25 3 1 2 58 2 116 2 57 0 218 1 100 0 97 0 231 2 199 2 11 2 241 2 109 1 2 1 137 0 94 0 238 2 130 1 234 3 78 2 156 1 50 1 178 0 111 1 6 2 48 1 200 3 117 2 174 1 108 1 215 0 131 1 29 1 205 1 155 3 93 2 151 1 177 1 244 0 154 1 48 1 90 1 99 3 53 2 110 2 5 2 17 0 183 1 70 0 202 1 28 3 4 2 60 2 111 2 55 0 217 1 98 0 99 0 231 2 201 2 12 2 236 2 107 1 1 1 135 0 94 0 237 2 132 1 235 3 77 2 155 1 49 1 177 0 111 1 6 2 50 1 201 3 117 2 175 1 107 1 215 0 130 1 28 1 210 1 158 3 94 2 152 1 176 1 243 0 154 1 48 1 91 1 99 3 53 2 110 2 4 2 17 0 182 1 70 0 204 1 29 3 5 2 61 2 110 2 54 0 216 1 97 0 101 0 232 2 203 2 14 2 235 2 107 1 1 1 135 0 94 0 237 2 134 1 236 3 76 2 155 1 48 1 177 0 110 1 5 2 52 1 202 3 117 2 175 1 106 1 214 0 130 1 28 1 208 1 157 3 94 2 152 1 175 1 243 0 154 1 47 1 89 1 98 3 52 2 110 2 4 2 17 0 182 1 70 0 203 1 28 3 4 2 60 2 109 2 54 0 216 1 97 0 99 0 231 2 201 2 12 2 234 2 106 1 0 1 134 0 93 0 236 2 134 1 236 3 76 2 155 1 48 1 177 0 110 1 5 2 52 1 202 3 117 2 175 1 106 1 214 0 130 1 28 1 209 1 157 3 94 2 152 1 175 1 243 0 154 1 47 1 94 1 101 3 54 2 112 2 2 2 17 0 182 1 70 0 206 1 30 3 5 2 62 2 107 2 53 0 215 1 97 0 101 0 232 2 204 2 14 2 230 2 105 0 255 1 133 0 93 0 236 2 136 1 236 3 75 2 155 1 48 1 176 0 110 1 5 2 53 1 203 3 117 2 175 1 105 1 213 0 129 1 27 1 215 1 160 3 96 2 154 1 173 1 242 0 153 1 47 1 98 1 103 3 56 2 113 2 1 2 17 0 181 1 70 0 210 1 32 3 6 2 63 2 105 2 53 0 215 1 96 0 103 0 233 2 206 2 15 2 231 2 105 0 255 1 133 0 93 0 236 2 137 1 237 3 75 2 155 1 47 1 176 0 110 1 5 2 56 1 204 3 118 2 175 1 105 1 214 0 130 1 28 1 214 1 160 3 96 2 154 1 174 1 243 0 153 1 47 1 95 1 102 3 55 2 112 2 1 2 16 0 181 1 69 0 209 1 32 3 6 2 63 2 106 2 53 0 215 1 97 0 102 0 233 2 204 2 15 2 231 2 105 0 255 1 133 0 93 0 236 2 137 1 237 3 71 2 152 1 45 1 174 0 109 1 4 2 56 1 203 3 117 2 174 1 103 1 212 0 129 1 27 1 216 1 160 3 97 2 155 1 172 1 242 0 152 1 46 1 101 1 105 3 57 2 114 1 254 2 15 0 180 1 68 0 216 1 35 3 9 2 65 2 103 2 52 0 214 1 96 0 105 0 234 2 208 2 17 2 226 2 103 0 253 1 132 0 92 0 235 2 140 1 238 3 70 2 152 1 44 1 174 0 109 1 3 2 59 1 205 3 117 2 175 1 101 1 212 0 128 1 26 1 220 1 163 3 98 2 156 1 167 1 240 0 151 1 45 1 106 1 107 3 59 2 116 1 250 2 14 0 179 1 67 0 223 1 38 3 11 2 67 2 98 2 51 0 213 1 95 0 107 0 235 2 209 2 17 2 222 2 101 0 252 1 131 0 92 0 234 2 141 1 239 3 70 2 152 1 44 1 174 0 109 1 3 2 61 1 206 3 117 2 175 1 102 1 212 0 129 1 27 1 220 1 163 3 98 2 156 1 170 1 242 0 152 1 47 1 102 1 105 3 58 2 115 1 253 2 15 0 180 1 68 0 219 1 37 3 10 2 66 2 100 2 51 0 213 1 95 0 106 0 235 2 209 2 18 2 224 2 102 0 253 1 131 0 92 0 235 2 142 1 239 3 68 2 151 1 43 1 172 0 108 1 3 2 61 1 206 3 116 2 175 1 100 1 211 0 128 1 26 1 221 1 163 3 99 2 157 1 167 1 240 0 151 1 45 1 108 1 108 3 59 2 117 1 249 2 14 0 179 1 67 0 223 1 39 3 11 2 67 2 94 2 49 0 211 1 93 0 108 0 235 2 212 2 19 2 218 2 99 0 251 1 129 0 92 0 233 2 144 1 240 3 66 2 150 1 42 1 171 0 108 1 2 2 63 1 207 3 116 2 175 1 98 1 210 0 127 1 25 1 223 1 164 3 99 2 157 1 165 1 239 0 150 1 45 1 111 1 109 3 60 2 117 1 248 2 13 0 178 1 67 0 226 1 40 3 12 2 68 2 93 2 48 0 211 1 93 0 108 0 235 2 211 2 18 2 219 2 99 0 251 1 129 0 91 0 233 2 143 1 239 3 66 2 150 1 42 1 171 0 108 1 2 2 62 1 206 3 115 2 174 1 98 1 210 0 128 1 25 1 221 1 163 3 98 2 156 1 167 1 239 0 151 1 45 1 104 1 105 3 58 2 115 1 249 2 13 0 179 1 67 0 221 1 37 3 11 2 67 2 96 2 50 0 212 1 94 0 106 0 235 2 209 2 18 2 222 2 101 0 252 1 131 0 92 0 234 2 142 1 239 3 68 2 151 1 43 1 172 0 108 1 2 2 64 1 207 3 117 2 175 1 100 1 211 0 128 1 26 1 222 1 164 3 99 2 157 1 169 1 241 0 151 1 46 1 110 1 109 3 60 2 118 1 249 2 14 0 179 1 67 0 226 1 40 3 12 2 68 2 96 2 50 0 212 1 94 0 109 0 237 2 212 2 20 2 219 2 100 0 250 1 129 0 91 0 233 2 146 1 241 3 64 2 149 1 41 1 171 0 108 1 2 2 68 1 209 3 116 2 175 1 97 1 210 0 127 1 25 1 227 1 166 3 101 2 159 1 164 1 239 0 150 1 45 1 114 1 111 3 61 2 119 1 246 2 13 0 178 1 66 0 229 1 42 3 13 2 70 2 91 2 48 0 210 1 93 0 110 0 236 2 213 2 20 2 215 2 97 0 249 1 128 0 91 0 233 2 146 1 241 3 64 2 149 1 41 1 170 0 108 1 1 2 66 1 208 3 116 2 174 1 97 1 209 0 127 1 25 1 226 1 165 3 100 2 158 1 165 1 240 0 150 1 45 1 110 1 109 3 60 2 118 1 248 2 13 0 178 1 67 0 225 1 40 3 12 2 68 2 94 2 49 0 211 1 94 0 109 0 236 2 212 2 19 2 218 2 99 0 251 1 129 0 91 0 233 2 145 1 240 3 65 2 149 1 40 1 170 0 107 1 2 2 65 1 207 3 116 2 174 1 97 1 210 0 127 1 25 1 225 1 165 3 100 2 158 1 165 1 240 0 150 1 45 1 115 1 112 3 62 2 120 1 247 2 14 0 178 1 67 0 232 1 43 3 14 2 71 2 93 2 49 0 211 1 94 0 110 0 237 2 213 2 21 2 216 2 99 0 250 1 129 0 91 0 233 2 149 1 242 3 65 2 150 1 40 1 171 0 107 1 2 2 68 1 209 3 116 2 175 1 97 1 210 0 127 1 25 1 228 1 167 3 101 2 159 1 164 1 240 0 150 1 45 1 116 1 113 3 62 2 120 1 246 2 13 0 177 1 67 0 234 1 44 3 15 2 71 2 92 2 49 0 211 1 93 0 112 0 238 2 214 2 21 2 218 2 100 0 251 1 130 0 91 0 234 2 148 1 242 3 66 2 151 1 42 1 172 0 108 1 2 2 67 1 209 3 117 2 175 1 97 1 210 0 127 1 25 1 230 1 168 3 101 2 160 1 165 1 240 0 150 1 45 1 115 1 112 3 62 2 120 1 246 2 13 0 178 1 67 0 234 1 44 3 15 2 71 2 92 2 49 0 211 1 93 0 111 0 237 2 213 2 21 2 216 2 98 0 250 1 128 0 91 0 233 2 147 1 241 3 64 2 149 1 40 1 170 0 107 1 1 2 67 1 208 3 116 2 174 1 96 1 209 0 127 1 24 1 227 1 166 3 100 2 158 1 162 1 238 0 149 1 43 1 116 1 112 3 62 2 120 1 241 2 11 0 176 1 65 0 234 1 44 3 15 2 71 2 87 2 46 0 209 1 92 0 112 0 237 2 215 2 21 2 209 2 95 0 247 1 126 0 90 0 232 2 150 1 242 3 59 2 147 1 38 1 168 0 107 1 0 2 70 1 209 3 115 2 174 1 94 1 208 0 126 1 24 1 229 1 167 3 102 2 160 1 160 1 238 0 149 1 43 1 119 1 113 3 63 2 120 1 241 2 11 0 176 1 65 0 239 1 46 3 16 2 73 2 87 2 47 0 209 1 92 0 115 0 239 2 217 2 23 2 210 2 96 0 248 1 127 0 90 0 232 2 150 1 242 3 61 2 147 1 38 1 169 0 107 1 0 2 72 1 211 3 116 2 175 1 94 1 208 0 126 1 24 1 234 1 169 3 103 2 161 1 162 1 239 0 149 1 44 1 121 1 115 3 64 2 122 1 242 2 12 0 177 1 66 0 240 1 47 3 17 2 73 2 87 2 47 0 209 1 92 0 116 0 240 2 218 2 24 2 212 2 97 0 248 1 128 0 91 0 233 2 150 1 243 3 60 2 147 1 38 1 168 0 107 1 0 2 72 1 211 3 115 2 175 1 94 1 208 0 126 1 24 1 232 1 169 3 102 2 161 1 161 1 239 0 149 1 44 1 121 1 115 3 64 2 122 1 241 2 12 0 176 1 65 0 242 1 48 3 17 2 74 2 84 2 46 0 208 1 91 0 115 0 239 2 217 2 23 2 207 2 94 0 247 1 126 0 90 0 231 2 152 1 243 3 57 2 145 1 36 1 167 0 106 0 255 2 73 1 210 3 114 2 173 1 91 1 206 0 125 1 22 1 234 1 168 3 103 2 161 1 156 1 236 0 147 1 43 1 125 1 117 3 65 2 123 1 237 2 9 0 175 1 64 0 245 1 49 3 18 2 75 2 80 2 44 0 207 1 90 0 118 0 240 2 220 2 25 2 203 2 92 0 245 1 124 0 90 0 231 2 154 1 243 3 56 2 144 1 35 1 166 0 106 0 255 2 75 1 212 3 113 2 173 1 90 1 205 0 124 1 22 1 238 1 171 3 104 2 162 1 156 1 236 0 147 1 42 1 128 1 118 3 66 2 124 1 237 2 10 0 175 1 64 0 247 1 50 3 19 2 76 2 81 2 45 0 207 1 90 0 118 0 241 2 219 2 25 2 205 2 93 0 246 1 125 0 90 0 231 2 153 1 244 3 56 2 145 1 35 1 166 0 106 0 255 2 77 1 213 3 114 2 174 1 91 1 207 0 125 1 23 1 238 1 171 3 104 2 162 1 157 1 237