521 521 487 516 512 486 522 512 501 534 516 513 540 516 522 540 509 531 535 496 529 530 495 529 518 497 527 511 510 531 503 519 530 496 526 534 503 541 538 499 532 516 496 529 505 506 531 493 514 530 482 515 530 487 528 529 493 541 520 501 545 517 514 552 515 519 555 508 531 555 495 533 548 496 545 536 501 554 527 514 561 519 520 564 513 525 559 498 527 550 491 533 539 493 546 522 498 547 508 513 552 495 514 548 483 516 539 479 520 520 472 521 504 477 527 482 489 525 466 499 521 466 516 518 470 526 510 493 546 498 512 555 492 522 551 487 535 539 488 546 525 493 547 519 484 537 523 484 537 523 480 538 522 486 544 516 486 545 512 494 550 508 507 558 498 509 547 480 499 535 467 499 526 460 503 514 453 506 503 457 513 501 462 519 490 465 517 477 473 521 459 471 515 448 474 510 441 479 491 433 494 481 446 506 473 465 518 465 472 518 452 472 514 447 482 512 450 495 506 443 500 490 446 503 474 459 515 464 463 513 446 464 507 435 470 492 426 479 487 432 491 479 448 506 452 464 505 432 473 484 435 496 468 453 508 445 469 503 436 489 488 442 503 463 460 509 440 469 496 433 491 484 453 514 471 469 520 455 484 518 456 514 528 468 526 504 473 536 485 493 532 460 496 518 454 505 503 457 518 486 465 523 463 477 515 444 487 508 444 504 488 460 521 473 479 532 465 502 530 468 528 526 477 539 507 493 547 482 502 542 465 502 518 453 510 498 465 527 478 483 527 457 487 511 450 510 501 473 536 486 489 535 464 496 522 454 508 501 465 522 484 480 525 455 480 507 440 496 490 453 516 475 469 519 451 475 508 439 491 490 447 508 467 465 516 448 472 505 435 489 489 448 514 482 477 528 456 477 515 446 475 513 449 480 519 451 482 519 451 490 519 453 494 511 451 508 505 458 521 504 470 533 500 486 541 488 495 545 480 506 546 472 508 538 474 522 535 475 535 534 484 543 528 488 550 523 490 551 515 495 552 502 500 551 489 505 548 479 506 544 472 511 535 467 520 532 471 528 527 477 538 524 483 544 519 485 549 515 491 546 500 495 548 486 501 544 476 498 537 469 503 534 466 511 521 460 516 520 466 523 510 481 540 491 500 540 470 506 524 459 515 511 466 528 496 479 530 470 489 526 460 503 509 460 520 501 482 540 484 490 528 459 497 517 456 511 503 468 529 487 487 532 467 496 525 459 510 510 466 526 495 484 535 474 492 523 453 499 506 454 515 494 469 525 474 484 528 458 494 520 457 508 505 459 523 494 482 536 472 491 529 463 510 515 458 519 503 475 534 486 491 535 467 499 523 461 515 512 464 523 502 482 538 481 492 532 460 501 514 453 510 499 470 533 490 497 543 473 506 532 468 521 522 476 536 514 491 549 494 502 541 468 502 521 458 513 508 462 524 496 480 528 465 482 521 453 495 511 452 513 499 464 524 468 465 521 468 467 518 462 465 514 458 466 516 452 470 512 444 474 506 443 497 511 460 525 512 461 519 503 465 526 495 477 532 480 483 533 466 488 527 458 497 523 458 507 516 457 512 514 456 513 510 458 518 509 468 525 501 475 534 487 486 535 470 484 526 457 490 523 453 490 514 449 494 506 444 501 491 450 510 481 466 518 464 467 513 448 466 508 438 474 493 432 486 489 440 502 480 453 511 466 467 518 456 477 514 444 490 498 444 503 483 464 520 467 478 525 452 489 515 447 499 500 454 518 486 469 525 458 478 519 448 490 513 447 504 496 458 523 476 473 523 455 484 514 449 501 502 455 521 492 472 531 468 483 524 451 497 507 454 515 493 463 524 470 473 520 447 480 505 443 504 495 463 528 482 490 539 462 492 518 450 501 504 455 521 495 472 536 474 486 529 454 494 509 450 511 494 468 528 474 485 532 460 502 523 464 527 515 473 540 511 498 561 498 518 561 491 532 558 490 547 545 497 564 526 508 570 504 522 569 490 530 551 480 540 534 486 550 517 498 558 492 504 550 473 509 530 469 529 521 475 536 507 493 546 480 500 539 469 495 537 470 497 537 468 494 536 467 492 532 464 495 526 461 504 519 461 511 516 460 518 511 460 517 501 463 527 492 473 534 478 479 529 459 480 523 453 492 522 452 499 515 455 509 509 455 515 504 460 524 490 469 529 473 477 529 461 480 522 450 487 516 448 495 520 459 507 509 450 508 490 456 518 481 465 524 468 475 526 452 476 517 444 479 504 441 495 497 447 508 485 460 516 473 465 521 462 471 515 443 475 498 437 497 482 450 514 462 462 511 437 472 493 429 491 477 444 505 450 456 502 427 468 485 431 497 473 457 519 459 474 519 451 488 515 450 506 506 462 530 498 486 541 477 497 539 463 505 519 458 518 511 472 534 500 488 541 474 495 528 457 506 510 462 525 497 478 536 466 481 523 449 492 505 453 518 500 470 527 468 478 526 452 487 513 448 502 502 457 528 496 483 540 472 489 530 456 506 517 459 526 510 482 540 487 492 541 468 503 526 458 516 516 465 531 510 493 553 486 497 539 464 505 520 457 524 515 468 536 501 484 544 477 491 533 459 506 516 456 523 505 474 534 479 486 535 462 496 520 453 508 506 464 532 508 479 546 509 484 549 507 491 555 506 495 555 490 500 553 476 502 543 468 507 537 461 517 534 467 522 522 467 529 514 464 529 512 470 536 503 480 543 487 482 539 464 484 531 456 492 525 450 493 511 444 503 499 454 517 488 459 524 475 471 528 461 474 524 449 480 514 443 487 510 443 501 502 446 512 502 456 520 490 465 527 474 473 531 462 480 527 451 485 515 444 494 512 449 509 514 462 531 522 474 539 500 483 542 472 492 534 461 508 518 461 527 508 478 540 481 488 537 463 500 523 454 514 511 464 528 496 480 540 473 494 535 460 508 517 460 525 510 479 543 488 493 542 467 503 525 458 518 513 457 523 502 474 537 475 484 531 455 494 518 452 508 505 460 529 491 477 532 466 487 526 455 505 508 457 525 495 475 534 468 482 528 450 497 507 452 516 496 467 532 474 481 532 453 492 517 445 501 498 457 527 482 474 528 457 483 519 447 502 506 451 520 494 466 530 467 476 526 453 492 517 449 511 509 470 533 487 474 530 460 483 516 440 490 499 444 510 478 462 526 458 473 518 442 483 498 421 474 450 413 473 413 418 463 380 422 444 375 420 433 373 427 431 380 439 430 385 455 415 405 468 406 413 468 395 418 464 390 441 465 405 473 469 431 500 469 457 524 463 469 532 465 484 539 463 498 539 464 516 545 476 532 542 478 543 541 484 551 534 489 561 523 490 562 516 498 567 505 503 566 489 518 568 487 525 555 480 532 552 484 543 551 491 558 548 498 569 538 502 574 521 502 572 499 499 557 476 505 551 470 511 541 466 520 536 466 533 523 472 546 499 486 554 483 504 552 467 513 531 462 531 523 476 549 498 483 550 471 493 533 459 518 526 464 535 514 473 545 498 486 552 472 496 539 458 508 517 453 522 505 467 538 472 472 532 453 490 520 444 501 499 447 520 486 458 527 454 462 514 436 481 500 439 509 483 455 526 455 463 517 440 480 503 440 508 482 453 526 461 464 519 442 481 507 443 513 499 459 531 476 468 531 452 484 517 445 508 508 458 530 482 469 541 466 485 531 454 510 517 456 530 507 477 546 475 479 536 455 501 525 455 525 515 470 544 499 481 552 477 496 544 468 521 535 470 537 518 473 546 501 483 552 476 494 538 462 517 528 465 539 518 477 557 534 486 554 530 478 546 526 474 542 524 476 548 511 483 554 494 487 557 481 497 551 470 508 545 467 520 542 469 527 535 467 532 528 471 539 517 469 543 512 478 553 507 486 560 491 493 555 475 501 551 473 513 548 466 509 535 465 526 530 465 531 520 464 535 511 472 547 493 475 547 476 479 541 459 486 531 452 498 525 451 512 522 457 522 517 459 526 507 462 535 491 468 538 471 468 534 455 474 526 446 497 511 450 520 493 461 532 465 467 527 447 491 519 445 507 503 451 527 484 464 534 454 478 523 448 502 514 451 522 499 465 535 470 473 530 451 492 522 447 513 511 453 527 489 465 536 462 474 527 449 504 522 464 543 518 472 543 492 479 547 470 493 533 456 517 524 461 530 508 474 547 481 482 542 462 504 532 462 532 520 468 542 502 481 552 476 494 540 465 518 535 468 540 522 478 552 497 485 550 467 491 527 453 511 510 460 530 484 463 531 451 471 517 441 495 509 451 525 496 470 537 463 474 524 447 494 513 446 513 502 455 526 472 464 531 454 481 519 442 499 500 444 517 486 456 529 458 467 525 446 491 516 447 513 512 451 516 522 451 509 516 449 510 518 448 506 512 451 519 511 458 528 501 466 538 485 470 539 467 476 540 466 499 543 463 501 529 453 515 535 468 526 529 466 534 520 469 537 508 474 542 486 474 547 473 478 537 460 493 538 461 501 530 458 514 529 461 520 525 464 528 520 470 538 518 469 542 515 472 548 513 483 553 504 491 559 485 489 547 465 495 537 457 496 524 450 506 515 453 516 516 455 522 510 461 532 494 473 541 465 481 529 456 505 515 453 522 508 472 540 475 474 534 457 493 523 449 510 507 457 531 489 470 537 465 481 525 450 506 518 457 523 503 476 548 481 483 540 461 498 524 452 518 512 456 523 495 468 535 463 472 526 449 495 512 447 511 502 468 546 486 480 539 459 490 517 447 508 505 456 528 481 466 530 456 476 518 441 495 502 442 515 493 461 528 467 470 521 446 482 504 443 509 488 463 531 466 472 523 447 490 517 447 505 499 456 523 476 471 529 450 475 509 440 499 493 452 520 473 463 521 448 466 508 436 493 491 446 514 475 461 524 455 476 522 450 505 515 457 528 508 477 543 481 488 541 464 509 532 464 530 527 471 529 531 470 531 532 468 523 517 455 520 515 458 525 513 461 529 510 475 545 499 485 548 485 494 552 479 508 553 470 508 535 461 514 529 460 515 526 465 524 524 473 536 520 470 540 515 471 543 513 483 547 506 491 555 490 493 549 473 495 543 471 506 538 463 516 535 466 526 529 472 536 522 473 539 506 470 528 471 459 512 445 449 500 422 449 482 413 462 477 416 477 463 424 495 459 449 514 461 469 523 444 482 498 432 494 472 440 511 451 459 505 424 468 480 422 493 457 442 502 431 457 498 423 481 484 436 506 458 452 509 433 466 497 429 490 480 443 510 449 455 508 429 470 489 429 496 479 449 520 467 471 526 453 489 520 451 510 522 468 534 501 479 540 471 487 530 456 505 520 462 531 521 481 551 511 506 567 493 521 564 490 537 554 494 560 546 508 576 528 532 589 518 539 586 508 552 568 502 568 555 514 581 542 524 589 528 533 587 505 533 568 490 542 547 484 550 524 485 547 493 490 543 466 494 525 453 506 504 453 523 490 472 531 464 478 520 446 492 508 448 514 499 463 528 477 480 531 457 490 523 450 508 508 456 519 511 457 519 513 448 503 506 448 503 504 449 512 498 458 520 485 465 528 475 476 529 460 481 529 459 501 541 468 513 530 458 509 517 457 516 513 453 518 512 458 522 508 466 534 497 479 540 483 486 539 467 490 531 456 499 526 456 511 519 461 521 519 462 527 516 465 530 511 473 537 505 485 546 492 494 550 475 495 540 462 498 528 455 505 520 458 514 518 451 510 505 458 523 491 465 531 475 472 529 453 477 511 437 492 489 445 514 474 460 519 453 471 515 438 484 503 442 507 486 457 522 463 473 523 451 492 516 445 504 497 454 524 479 474 528 453 480 513 443 498 499 446 517 492 467 534 472 485 536 464 511 528 461 520 508 463 537 493 483 533 470 495 513 475 497 482 479 497 476 493 500 471 502 494 470 493 479 480 495 477 500 499 470 495 484 478 507 492 490 497 477 496 498 470 492 481 459 479 460 461 476 457 486 486 461 485 480 468 487 471 485 495 474 504 498 476 496 486 480 497 479 494 499 478 508 499 479 503 490 494 509 494 522 525 500 532 525 502 529 522 514 537 524 519 539 523 523 538 517 527 535 513 535 533 509 538 532 512 534 535 513 535 539 518 530 537 515 532 538 521 537 542 518 534 534 511 530 532 514 538 538 513 535 532 507 535 530 504 530 519 496 522 514 492 520 510 488 514 506 489 510 499 498 510 496 511 519 497 516 520 502 524 526 505 530 529 507 532 524 497 525 514 492 522 511 492 515 507 489 513 501 491 510 494 498 510 491 508 514 495 519 516 493 518 513 493 518 513 490 518 514 490 518 512 492 520 510 487 515 507 490 510 494 501 513 494 510 512 485 513 509 486 514 503 485 506 491 498 507 487 510 505 480 509 497 482 499 485 488 498 480 503 501 476 502 493 476 497 485 488 493 467 487 480 454 481 468 461 475 458 474 475 450 477 465 448 469 451 462 472 453 482 472 451 476 464 466 480 464 489 494 474 501 491 474 497 484 487 499 480 498 499 477 505 496 476 498 483 487 499 483 502 500 475 502 493 475 497 484 486 496 476 499 496 473 498 487 469 491 477 477 490 471 494 493 473 501 491 479 499 484 494 505 488 516 511 490 519 512 492 519 510 494 515 504 500 514 493 508 513 494 519 516 491 517 510 486 512 499 487 504 487 488 504 484 490 502 479 489 497 478 488 491 469 493 487 461 489 484 464 485 472 460 480 464 473 482 464 486 487 465 496 492 470 496 485 474 493 482 481 498 480 490 499 481 500 500 477 504 500 475 502 500 480 501 493 489 507 493 501 514 497 508 520 501 515 520 498 517 522 501 519 518 494 518 513 490 518 516 490 515 513 488 518 512 489 516 514 490 518 513 489 518 511 486 511 507 484 509 504 490 512 496 496 509 491 516 516 493 519 515 488 515 510 485 513 502 492 510 492 504 513 490 514 515 492 517 510 483 508 497 485 505 486 497 512 491 511 514 483 511 506 483 509 494 494 510 486 509 512 487 513 510 478 506 497 479 503 486 497 511 485 511 511 479 509 500 484 508 491 498 517 489 513 518 477 486 524 483 498 541 490 522 549 500 549 546 509 566 532 510 571 508 517 568 505 530 561 498 544 546 500 558 524 498 560 506 499 555 488 514 543 481 527 537 483 543 512 482 546 492 485 542 472 503 531 468 519 518 468 529 499 468 534 470 475 527 458 496 522 459 519 510 463 526 485 462 529 467 476 524 458 506 517 460 517 503 463 526 501 463 530 497 464 533 492 462 530 476 460 529 463 470 525 454 483 519 452 497 517 457 507 516 460 515 510 460 525 502 463 532 485 461 530 468 462 523 453 472 519 447 482 511 447 505 504 449 511 490 454 522 476 456 525 464 462 523 454 475 518 451 485 512 448 498 508 450 511 489 454 519 478 452 521 468 455 521 451 457 511 444 476 506 440 497 504 448 509 491 449 517 475 451 520 464 452 520 453 467 511 446 498 501 449 515 482 451 522 457 464 519 448 481 506 448 509 487 456 526 465 464 517 447 479 506 446 509 489 454 524 463 459 519 447 476 506 445 508 490 454 524 468 462 522 451 485 515 446 506 498 455 530 472 462 529 455 484 521 447 503 504 449 524 482 454 530 459 467 522 446 494 510 450 520 494 454 532 464 462 526 449 488 519 447 509 505 451 527 479 452 530 456 473 524 447 501 512 451 521 500 457 536 470 462 533 453 487 518 447 509 502 452 530 482 455 533 457 476 523 446 506 513 453 528 501 461 537 468 464 529 449 491 526 450 514 512 457 530 496 461 540 469 473 534 456 504 529 457 521 501 456 536 474 457 539 470 456 539 466 461 542 464 464 534 455 481 531 451 498 528 449 510 516 452 520 516 452 523 508 455 531 496 456 539 477 458 537 461 467 532 450 482 526 447 499 521 449 515 522 452 518 512 447 518 507 452 528 496 456 537 479 456 535 461 461 530 450 478 528 446 497 525 448 513 520 452 515 520 449 521 517 450 523 508 453 534 498 458 538 476 458 537 461 468 534 449 482 532 451 504 527 453 517 511 455 537 490 462 542 465 478 534 452 506 520 452 528 502 460 544 475 469 537 451 493 528 448 515 517 451 527 498 462 546 471 473 537 457 502 526 449 520 511 455 536 487 459 538 459 479 529 446 503 513 449 526 498 460 542 469 465 530 448 492 524 448 514 508 449 530 490 458 541 460 472 531 450 499 518 446 520 507 457 538 484 458 539 462 479 528 450 510 511 454 533 489 462 543 465 479 534 452 507 520 452 526 503 463 545 478 471 537 454 495 533 456 523 519 457 534 496 459 543 466 472 533 451 502 522 450 528 507 461 542 475 468 539 458 494 531 450 519 523 459 536 496 462 544 467 470 532 449 496 521 448 518 507 451 531 493 448 534 488 452 534 481 452 539 479 456 537 461 465 533 452 481 531 449 504 530 455 518 524 453 524 514 456 532 506 461 544 489 460 541 468 463 537 455 478 529 447 495 528 451 512 526 451 515 523 455 523 508 453 531 494 452 534 473 453 533 457 464 529 446 479 525 443 499 521 448 511 514 451 524 509 454 532 502 459 544 485 466 546 469 474 542 459 491 542 459 499 532 452 513 534 460 522 520 453 529 506 465 549 478 475 543 459 500 531 454 526 518 461 541 497 465 547 469 481 536 453 509 524 457 534 505 463 546 475 474 541 457 498 529 454 529 514 458 540 496 468 551 473 483 541 459 513 534 456 528 512 457 537 497 465 543 468 479 535 453 504 522 452 528 497 457 543 474 470 534 450 493 526 447 519 513 453 533 498 461 540 466 470 534 450 498 521 448 520 512 454 537 491 462 546 468 479 539 455 510 528 458 536 505 465 547 474 471 539 454 498 529 453 521 512 451 529 492 457 540 468 473 533 446 491 521 443 513 506 445 525 481 450 531 455 463 522 439 492 508 443 520 486 444 529 457 456 524 440 484 509 436 510 483 442 528 473 444 530 469 445 531 464 446 532 454 455 529 446 475 526 439 488 518 441 499 508 442 520 504 449 533 488 451 537 467 455 532 452 467 528 444 485 522 442 503 517 448 515 516 447 520 513 448 523 506 456 537 489 462 551 477 471 542 457 480 533 450 500 532 451 513 528 455 524 521 458 533 511 455 535 497 458 542 479 462 547 469 477 544 461 497 545 459 507 539 459 523 532 459 533 521 462 539 514 463 543 495 466 549 470 489 539 459 522 527 457 538 502 464 547 473 477 544 457 507 532 460 537 513 459 541 493 466 551 465 487 540 458 517 530 459 537 514 463 546 491 469 550 467 488 536 457 521 530 460 536 507 467 550 477 479 543 455 505 531 459 535 513 461 545 496 468 550 469 485 537 455 511 519 452 530 505 463 548 481 477 541 457 501 532 455 526 511 455 541 485 459 541 463 481 533 453 514 526 457 531 501 458 542 475 468 537 455 498 527 450 521 514 455 531 493 460 540 466 474 535 453 506 523 455 527 504 460 542 475 470 537 454 496 532 453 522 517 457 535 496 464 546 472 477 537 454 506 525 454 530 505 461 546 477 465 547 472 466 546 467 472 547 467 476 540 455 491 539 457 503 531 455 518 530 457 525 521 457 532 515 458 537 508 464 547 492 464 547 471 469 539 455 482 536 451 501 531 452 517 528 458 526 521 459 531 513 455 534 510 463 541 484 457 542 469 467 541 460 485 540 457 507 537 456 516 531 458 527 524 460 536 514 459 541 508 464 547 487 466 548 468 473 541 457 487 535 453 509 535 458 524 526 458 529 505 462 545 475 470 540 457 497 531 455 525 520 461 538 497 463 545 470 482 540 454 507 523 453 530 502 459 545 473 472 540 456 499 531 455 526 511 458 544 489 464 542 461 482 532 451 512 523 451 528 499 458 541 472 470 536 452 495 527 449 523 510 454 542 489 463 544 463 481 530 449 508 511 453 535 489 459 542 461 473 530 444 498 511 446 526 491 455 533 453 455 516 431 478 506 437 512 486 439 520 452 439 512 427 455 499 420 489 476 428 514 453 434 515 435 458 510 429 492 494 438 521 472 446 527 450 468 519 436 492 512 443 518 500 454 539 474 461 535 451 488 533 449 513 521 452 529 505 461 544 473 469 539 456 497 529 449 504 530 450 511 534 456 514 542 455 514 537 458 518 531 456 523 521 456 530 513 454 536 507 459 545 492 465 552 475 481 549 464 496 548 462 505 541 455 518 538 462 527 528 461 536 516 457 540 514 462 545 508 468 556 493 473 555 472 485 547 462 505 545 462 521 545 468 532 536 467 542 529 473 555 522 473 554 497 470 558 481 486 554 470 503 554 466 515 550 467 525 545 471 541 540 473 549 526 475 561 502 480 564 476 503 551 465 531 538 469 551 512 470 560 481 480 549 458 506 533 454 528 511 456 540 482 458 537 452 477 526 444 511 512 447 529 490 453 538 462 468 532 446 498 520 445 520 509 454 538 484 459 541 455 474 525 441 502 508 446 529 489 455 538 455 467 527 444 499 514 441 522 500 455 541 470 461 534 448 491 531 447 518 522 455 536 495 459 547 473 482 541 455 511 532 456 535 511 466 556 482 477 542 454 498 528 449 526 512 453 537 492 457 543 461 471 534 449 504 520 445 524 502 454 541 472 465 538 453 496 534 450 522 518 457 541 495 463 545 464 480 536 449 505 523 448 530 501 459 545 470 471 540 453 499 538 453 500 536 451 501 538 456 505 536 453 518 535 458 528 527 459 536 511 462 551 493 468 556 472 478 550 459 496 550 463 511 544 460 520 539 461 530 527 460 539 515 458 543 515 464 549 511 469 561 494 477 559 476 492 552 464 509 550 463 523 545 471 540 536 469 549 526 474 558 508 476 567 494 490 566 473 503 559 471 513 557 470 522 552 471 534 545 471 544 534 472 552 521 468 556 512 468 556 495 478 557 466 504 544 463 538 536 470 556 499 467 552 462 488 537 453 516 524 450 529 498 457 543 468 468 536 446 497 526 445 523 508 456 543 479 467 543 455 491 538 451 520 527 456 540 507 465 549 470 469 535 448 498 526 447 524 506 457 545 475 462 539 452 492 535 448 515 522 450 532 495 456 538 464 468 534 448 497 523 443 524 507 456 545 475 462 538 450 488 524 441 519 511 448 537 484 456 542 461 480 530 440 506 511 445 