435 518 357 469 501 353 516 550 398 552 525 432 570 433 437 550 390 492 558 391 525 511 405 553 467 436 549 382 479 550 396 543 560 398 541 519 433 569 453 452 565 391 503 597 437 596 578 424 566 483 443 565 403 496 579 404 531 571 423 597 545 454 590 445 440 540 366 498 542 410 605 687 650 788 569 481 563 389 498 598 402 514 552 412 543 535 433 569 456 475 562 387 504 566 403 540 557 422 562 505 476 590 428 506 603 431 585 613 460 593 567 465 597 538 447 598 555 444 555 509 438 550 417 412 499 346 402 509 352 420 534 358 473 502 352 489 533 386 553 570 392 550 516 394 557 504 435 557 441 468 590 409 467 571 397 493 552 381 532 539 418 570 558 427 569 526 427 555 503 441 579 446 457 563 400 488 574 396 517 594 431 561 606 430 546 559 407 545 522 387 551 499 439 585 478 452 546 396 459 556 382 484 539 387 511 569 451 632 685 603 765 579 430 535 392 449 559 393 517 558 414 550 557 423 562 489 451 563 411 499 595 415 535 576 429 598 561 465 600 468 494 600 421 550 608 457 621 586 477 604 488 493 613 421 518 580 401 535 533 400 540 485 397 503 375 428 516 362 465 526 352 486 493 377 530 472 429 561 402 475 560 393 535 580 425 585 517 397 546 440 446 583 389 485 543 393 555 553 411 575 520 460 562 421 486 591 414 532 612 428 554 553 399 554 505 464 593 406 464 542 375 509 562 396 541 508 406 543 430 439 536 372 471 581 494 731 759 561 570 451 417 550 404 477 548 390 532 562 399 552 547 460 591 489 479 580 407 528 619 444 587 581 450 588 492 483 609 463 466 602 445 503 602 445 504 605 430 517 604 440 542 590 391 523 550 368 524 529 373 511 501 379 529 488 409 536 434 430 532 398 442 540 382 471 573 392 491 578 395 522 562 419 564 550 409 545 523 414 580 525 444 578 471 473 566 396 481 583 390 461 560 401 518 584 388 522 563 418 560 570 452 612 543 431 566 506 444 530 402 438 574 404 471 549 375 486 546 391 506 554 388 524 544 405 590 566 467 642 587 647 794 540 496 535 359 511 532 395 541 496 464 583 413 480 561 392 519 574 409 550 526 406 549 473 477 584 420 533 616 420 557 557 444 598 538 469 585 435 506 603 413 529 579 424 591 563 419 547 462 439 550 375 460 497 350 498 499 380 540 466 425 548 391 468 540 372 504 547 383 539 514 394 561 463 450 550 383 478 548 399 553 541 430 585 501 467 580 426 506 595 411 522 551 394 553 548 422 569 472 436 570 427 526 599 411 548 591 447 540 462 429 535 390 430 550 391 506 529 370 523 518 420 574 491 457 600 426 490 597 479 658 745 622 690 500 408 526 379 457 539 371 509 536 412 573 570 445 582 462 479 568 392 474 582 399 478 601 412 494 587 403 494 588 422 523 599 440 542 597 447 593 614 483 637 589 480 614 500 485 568 388 472 520 367 446 510 338 454 506 357 493 535 380 531 536 410 563 523 404 551 506 410 550 445 423 534 388 438 524 363 466 544 374 499 549 374 504 571 414 572 563 440 588 550 436 578 489 471 592 428 481 587 410 493 579 412 524 586 403 527 581 437 595 592 457 585 521 407 569 488 442 540 411 472 574 396 528 604 477 710 725 626 639 435 396 537 374 468 546 376 535 583 455 603 506 436 569 406 488 579 402 522 570 417 568 532 429 563 444 484 575 399 526 591 426 571 587 463 617 509 520 623 441 520 603 427 527 561 398 514 522 398 546 507 424 527 413 441 518 351 451 524 366 496 509 431 555 451 433 564 386 465 535 377 509 532 410 582 509 445 560 428 508 557 410 515 550 407 565 518 374 512 503 449 583 500 526 615 415 482 525 373 513 518 378 544 538 442 562 429 443 550 383 491 534 401 543 520 419 569 561 573 729 645 584 553 384 468 534 404 515 505 390 521 501 425 537 483 472 530 414 516 563 468 580 575 485 615 585 484 588 540 480 582 563 500 611 570 520 572 540 496 562 491 525 586 485 505 547 428 512 527 411 490 473 390 478 477 414 524 498 389 497 462 434 488 408 471 501 388 495 482 380 484 484 423 534 501 427 547 509 460 516 490 505 546 474 480 496 387 477 497 392 496 517 412 524 507 428 554 517 480 596 569 513 610 550 500 575 523 502 560 505 523 530 449 520 541 432 500 528 424 553 548 445 546 541 467 593 589 579 735 708 633 569 438 503 512 401 513 519 399 527 519 431 540 529 467 562 508 523 515 428 489 498 410 500 479 419 569 536 512 598 503 503 549 448 544 572 478 577 545 477 593 541 545 576 485 502 502 395 492 499 403 517 476 426 520 470 450 491 369 455 473 382 496 475 442 554 492 497 546 431 532 509 425 547 528 466 578 529 523 598 505 527 558 426 513 550 411 535 550 424 533 507 437 538 491 507 569 428 499 564 427 528 558 401 547 536 450 565 469 479 558 401 485 525 393 541 554 444 582 530 460 582 484 558 672 572 719 727 468 526 494 428 567 466 464 579 410 519 590 425 567 552 435 575 501 445 560 427 500 588 395 500 587 430 540 578 409 524 609 428 520 600 427 544 595 406 551 593 460 600 576 451 574 505 434 543 411 397 501 350 387 498 349 418 472 315 427 498 364 535 531 369 530 526 378 506 472 428 536 439 436 515 387 461 572 385 464 559 388 504 562 400 533 535 402 536 520 385 545 534 423 561 510 436 558 450 463 578 403 462 543 372 473 541 368 481 534 366 494 547 398 542 543 391 555 537 415 549 500 421 561 496 570 699 517 523 510 342 506 511 404 555 501 435 539 396 467 568 400 540 569 432 609 588 480 611 477 502 590 413 540 586 428 583 582 455 596 507 487 600 430 527 600 441 552 584 434 592 561 450 553 423 433 535 370 489 518 377 517 518 387 521 505 386 540 453 437 566 391 470 564 397 558 550 396 542 459 422 548 390 446 553 384 504 521 397 537 529 457 587 465 489 565 393 495 547 395 563 578 453 613 512 482 575 401 477 549 374 503 534 396 566 536 447 563 436 453 562 400 523 575 382 547 558 451 661 633 625 655 407 476 564 382 522 542 441 578 489 451 579 408 501 586 418 569 590 461 601 529 444 600 474 497 584 423 546 580 434 572 608 453 594 625 462 585 600 482 641 594 477 620 515 444 572 435 461 544 372 450 521 373 478 547 380 493 550 388 525 538 412 556 546 413 548 528 425 574 490 466 596 446 469 545 387 485 564 399 523 572 404 543 595 409 564 547 423 562 517 431 570 519 415 561 508 455 559 434 493 569 395 471 571 397 506 590 417 561 584 424 558 564 432 582 568 440 587 515 453 570 457 436 550 416 470 563 392 467 530 366 511 542 429 588 526 423 591 480 574 720 564 592 590 402 539 550 418 571 524 439 565 424 454 560 398 525 570 416 554 522 429 555 457 459 540 372 476 548 393 551 574 455 589 521 483 615 447 520 591 416 533 594 456 588 546 447 580 462 442 544 371 472 512 357 506 555 402 524 478 393 520 414 451 544 371 472 552 374 499 518 391 532 507 454 539 420 455 559 399 519 583 396 545 548 459 576 484 464 584 416 504 580 400 536 579 416 564 513 432 557 427 463 573 397 521 591 405 547 554 304 172 93 56 36 21 17 17 9 12 12 5 9 9 4 7 44 115 329 546 559 767 919 914 999 1023 1023 1023 1018 1023 1023 1022 1023 1023 1023 1023 1023 1023 1023 1003 971 1023 907 919 980 700 402 222 122 75 45 26 22 16 9 12 12 7 10 10 6 9 96 121 125 284 248 260 442 345 468 571 470 584 696 525 638 796 655 765 789 650 775 776 691 825 796 746 817 769 767 804 738 608 671 550 621 688 521 612 735 597 660 728 619 723 788 600 658 677 573 663 638 511 594 561 551 648 521 556 635 510 544 653 491 597 673 524 643 704 538 696 718 579 655 606 522 593 470 542 647 479 606 656 559 703 631 518 621 469 541 645 501 612 670 553 718 642 631 717 521 505 564 442 530 613 556 675 611 559 691 566 515 615 482 451 579 466 601 674 551 688 608 515 575 460 523 622 461 519 529 402 526 616 460 542 457 442 549 417 420 543 444 612 714 563 614 485 409 433 324 435 607 451 506 565 418 519 533 426 525 417 393 529 397 401 517 430 593 612 523 647 536 492 579 446 520 650 486 594 637 524 663 576 557 665 465 445 526 380 442 494 405 572 541 430 511 363 430 521 355 403 526 437 491 541 431 518 458 479 531 430 440 532 363 472 565 449 600 551 486 602 491 401 544 395 405 508 397 522 548 458 550 552 429 514 576 409 519 570 398 540 626 485 601 511 372 410 381 351 499 466 498 532 375 408 503 364 457 514 389 472 514 399 480 553 468 558 520 428 651 662 600 716 569 404 547 447 440 528 380 465 493 347 436 543 406 494 562 433 530 591 514 575 575 476 671 635 539 632 552 473 553 454 479 572 383 406 469 359 502 635 473 572 622 478 606 542 456 606 510 461 517 432 444 507 347 370 456 340 428 544 426 430 444 376 474 419 444 519 382 480 506 358 442 524 448 599 540 494 596 420 478 568 394 490 555 457 545 521 439 612 486 465 578 408 428 492 377 532 635 480 573 527 488 525 359 431 509 396 470 578 458 613 577 587 634 496 510 546 386 347 422 331 484 550 451 592 535 389 489 398 486 560 408 507 577 440 618 667 637 679 493 400 476 365 475 513 401 557 551 441 582 463 463 514 359 403 518 354 446 525 361 530 580 519 597 569 506 581 432 471 548 421 450 488 432 539 522 437 553 439 492 608 424 451 582 456 586 536 445 537 441 418 543 361 380 498 361 478 520 431 613 543 443 503 397 407 498 372 423 537 467 559 533 414 513 419 374 482 415 423 520 449 420 512 455 521 593 474 444 493 365 464 527 386 464 536 390 509 574 440 527 520 392 531 528 396 548 501 476 589 549 494 578 428 398 533 408 477 521 378 500 609 454 546 550 420 506 570 403 579 542 448 608 563 491 648 636 647 739 494 495 498 335 429 478 420 525 527 400 509 555 463 529 432 342 514 463 461 543 438 443 542 392 461 579 414 512 577 421 547 634 488 557 604 463 620 569 517 612 465 515 617 432 548 579 425 572 585 457 565 485 448 514 377 447 553 423 456 469 427 576 448 476 576 390 411 541 439 609 620 516 612 517 473 582 405 486 549 390 485 556 449 567 486 422 522 414 508 615 429 511 574 484 604 564 545 686 548 512 615 430 409 497 365 502 510 404 559 498 458 498 362 433 441 310 344 424 337 446 381 345 531 470 497 595 426 370 425 326 433 457 409 534 446 467 554 410 469 621 490 617 628 506 586 458 491 569 410 545 646 533 594 577 520 692 620 690 767 552 684 705 577 748 736 613 726 702 695 715 508 637 719 560 741 739 612 750 687 700 790 624 771 842 656 835 882 721 875 828 828 922 815 833 933 763 714 828 704 722 843 685 706 732 565 709 743 561 699 749 583 698 634 529 684 636 543 653 544 559 676 527 539 614 424 541 603 435 516 560 395 515 566 394 542 561 406 560 537 403 575 530 411 507 486 380 550 465 523 684 584 632 581 367 383 417 288 393 476 326 436 440 353 517 473 360 490 425 395 510 363 392 416 304 430 449 303 458 465 314 470 453 374 534 499 395 545 482 431 526 393 460 573 393 486 499 375 537 478 377 471 346 314 411 300 397 425 293 417 451 344 490 370 356 470 342 350 414 287 402 437 325 475 437 342 447 392 342 479 337 398 436 294 396 420 366 495 421 383 527 357 391 518 364 491 525 386 551 547 415 529 466 373 464 330 322 405 264 372 418 336 539 496 361 454 343 370 439 313 416 558 437 648 703 571 535 347 316 433 331 462 490 335 431 418 324 531 515 446 550 423 471 529 342 426 474 376 533 493 397 523 465 416 553 409 536 542 393 490 473 368 535 544 422 551 435 460 553 396 495 512 403 523 495 397 568 503 439 522 384 440 528 365 452 532 418 504 478 429 530 429 476 573 391 494 556 401 574 575 438 552 520 398 565 565 408 502 528 414 562 573 415 584 552 466 663 562 508 588 506 482 585 436 477 550 391 449 558 388 481 497 402 584 560 428 520 528 412 586 534 424 569 581 616 783 616 494 520 386 435 503 355 457 556 414 528 577 417 559 588 446 552 546 409 550 558 449 536 527 486 637 524 481 595 447 525 570 382 495 590 423 552 590 452 573 562 468 617 593 506 614 489 487 539 400 451 464 329 425 501 366 553 514 407 584 523 402 570 449 463 532 384 509 523 348 527 556 439 544 498 435 549 400 485 544 388 494 556 423 589 534 421 596 515 491 583 416 449 542 368 461 512 415 615 573 482 611 581 765 921 734 873 830 707 810 703 615 838 943 808 935 1005 1023 1023 1023 1023 1023 1023 1023 1023 1023 881 705 613 500 354 445 347 291 392 266 281 362 227 303 344 238 346 305 248 362 271 264 334 212 306 410 265 358 354 275 427 380 351 436 315 368 411 287 459 458 359 466 377 332 413 297 315 341 214 310 374 272 374 348 271 411 312 370 406 257 344 376 246 393 231 129 75 40 27 21 13 12 426 330 190 104 58 37 166 228 578 818 886 984 1023 1023 1023 1023 1023 1023 1023 1023 1023 877 695 861 863 945 1010 970 1023 1023 1023 1023 1023 1023 1023 1023 1023 1023 1023 1023 1023 1023 1023 1023 1006 1023 1023 1023 1023 905 857 961 830 860 948 775 820 906 708 804 871 674 762 804 615 742 774 600 708 719 592 715 653 573 695 587 528 640 501 531 662 479 536 606 430 517 584 415 529 575 381 496 511 344 470 447 320 454 386 282 416 310 283 401 298 323 420 274 335 425 265 362 403 276 416 384 300 413 286 340 448 289 398 467 307 432 382 317 470 366 357 465 298 367 431 287 455 495 451 567 479 610 741 583 766 755 566 767 648 561 738 545 574 661 430 474 466 316 415 372 279 406 361 350 461 329 399 553 475 585 521 306 398 363 357 484 369 405 464 336 389 413 294 461 489 417 513 427 421 523 402 451 555 411 547 563 412 559 580 532 677 574 550 640 518 606 691 521 576 616 467 583 544 450 570 481 514 590 446 553 619 453 592 608 489 613 501 482 581 446 536 603 460 579 574 459 579 502 475 585 438 475 510 360 539 578 481 561 503 432 599 430 462 579 419 536 591 467 604 581 592 658 415 498 567 370 570 554 374 570 559 383 574 570 372 560 556 370 592 557 398 618 528 439 638 504 467 626 424 500 621 416 559 625 414 595 605 413 618 563 419 624 525 434 629 465 460 596 399 485 576 374 505 568 372 557 564 376 573 559 393 595 545 394 615 529 438 643 506 484 632 442 524 627 414 558 624 423 608 611 420 622 579 429 640 558 427 635 536 440 648 501 487 634 440 527 630 429 583 651 458 659 672 510 696 654 571 764 613 607 720 512 592 649 450 594 545 373 540 469 449 646 544 627 725 563 626 576 467 616 635 526 644 602 554 643 497 541 621 410 470 528 366 505 495 384 538 480 433 549 390 449 543 376 500 510 373 507 454 395 526 379 427 510 352 460 525 367 496 514 370 522 476 417 545 452 577 733 569 579 517 325 468 486 387 524 441 423 515 374 442 537 381 499 529 369 521 494 406 540 441 471 568 402 504 565 416 559 538 442 577 488 484 587 422 510 584 423 551 564 426 576 519 427 538 418 436 539 367 450 493 339 476 457 375 509 398 402 528 366 460 530 357 510 501 393 540 441 418 528 378 451 549 368 492 533 381 528 496 408 546 426 463 558 400 462 549 393 478 564 411 487 577 404 495 579 428 538 570 391 528 574 434 601 469 452 610 382 296 344 213 414 566 432 674 732 609 810 848 728 896 861 775 919 833 798 935 808 817 931 743 805 871 638 769 808 592 741 710 527 736 703 399 222 122 69 94 238 138 82 44 29 22 12 10 12 8 7 404 731 901 991 1023 1023 1023 1023 1023 1023 1023 1023 1023 1023 1023 1023 1023 1023 1023 1023 1023 1023 1023 1023 1023 1023 1023 1023 1023 1023 1023 1023 1023 1023 1023 1023 1023 673 359 200 110 67 44 26 21 18 10 13 12 7 10 11 6 10 10 6 10 9 5 8 7 4 7 9 3 7 8 4 8 7 4 8 7 3 7 8 4 6 7 4 6 8 4 6 9 4 5 9 4 5 9 6 5 8 5 5 10 6 6 7 5 4 9 4 5 8 5 4 9 5 4 8 5 3 9 6 3 8 5 3 8 6 3 8 6 4 8 13 7 116 84 47 128 86 49 53 28 17 15 9 295 674 870 974 1023 974 568 307 421 247 133 75 48 26 18 17 10 11 13 6 9 8 4 7 8 3 6 9 4 5 10 4 6 6 4 4 9 3 5 7 2 5 7 6 4 38 72 40 242 371 278 566 657 576 800 883 832 950 1009 1004 1023 1023 1023 1023 1023 1023 1023 1023 1023 1023 1023 1023 1023 1023 1023 1023 1023 1023 1023 1023 1023 1023 1023 1023 1023 1023 1023 1023 1023 1023 1023 1023 1023 1023 1023 1023 1023 1023 1023 1023 1023 1023 1023 1023 1023 1023 1023 1023 1023 1023 1023 1023 1023 1023 1023 1023 1023 1023 1023 1023 1023 1023 1023 1023 1023 1023 1023 1023 1023 1023 1023 1023 1023 1023 1023 1023 1023 1018 1023 1023 973 1023 944 903 974 727 805 803 550 691 623 426 600 456 364 510 320 343 419 240 345 314 176 326 247 158 312 194 176 277 159 220 224 122 252 190 112 265 163 138 246 140 187 211 114 234 181 103 263 168 135 250 145 184 225 123 245 216 123 294 198 156 297 174 231 279 157 284 243 132 466 479 263 585 439 249 620 359 198 109 61 40 24 15 16 11 8 11 7 6 10 8 5 9 5 5 8 6 4 9 7 3 8 6 4 9 6 3 36 509 292 458 253 137 80 42 28 20 10 10 472 285 160 90 46 33 22 11 14 10 6 9 8 4 7 5 3 7 8 3 8 7 3 6 6 3 205 404 224 477 767 920 1002 1023 1023 1023 1023 1023 1023 1023 1023 1023 1023 1023 1023 1023 1023 1023 1023 1023 1023 1023 1023 1023 1023 1023 1023 1023 1023 1023 1023 1023 1023 1023 1023 1023 1023 1023 1023 1023 1023 1023 1023 1023 1023 1023 1023 1023 1023 1023 1023 1023 1023 1023 1023 1023 1023 1023 1023 1023 1023 1023 1023 1023 1023 1023 1023 1023 1023 1023 1023 1023 1023 1023 1023 1023 1023 1023 1023 1023 1023 1023 1023 1023 1023 1023 1023 1023 1023 1023 1023 1023 1023 1023 1023 1023 1023 1023 1023 1023 1023 1023 1023 1023 1023 1023 1023 1023 1023 1023 1023 1023 1023 1023 1023 1023 1023 1023 1023 1023 1023 1023 1023 1023 1023 1023 1023 1023 1023 1023 1023 1023 1023 1023 1023 1023 1023 985 1023 1023 1009 1023 1015 1023 1023 1023 1023 1023 1023 1023 1023 1023 1023 1023 1023 1023 1023 1023 1023 997 924 902 891 988 1023 1023 1023 1023 1023 1023 1023 1023 1023 1023 1023 1023 1023 1023 1023 1023 1023 1023 1023 1023 1023 1023 1023 1023 1023 1023 1023 1023 1023 1023 1023 1023 1023 1023 1023 1023 1023 1023 1023 1023 1023 1023 1023 813 440 240 132 81 48 29 26 18 13 16 12 8 14 9 7 10 8 7 11 9 5 9 6 6 10 9 5 10 8 6 9 6 4 9 7 4 8 6 3 8 6 3 7 7 3 9 8 4 7 8 4 7 8 3 7 9 4 5 8 4 4 8 5 2 7 7 4 7 9 4 7 9 5 5 9 6 6 9 6 5 10 5 2 9 7 5 9 9 3 8 10 4 6 10 3 5 8 7 5 10 6 3 9 7 5 9 7 4 9 9 5 6 9 4 6 9 5 6 10 4 4 10 7 4 10 6 3 8 7 4 8 8 5 7 8 5 5 9 5 6 9 6 5 9 6 4 8 7 5 8 9 4 7 9 3 6 8 3 4 8 4 7 8 3 5 8 4 4 7 5 5 10 5 6 64 38 42 167 93 140 238 128 79 151 149 565 589 411 413 247 228 335 240 255 332 209 317 358 234 369 305 246 362 250 307 377 234 357 391 289 409 340 308 430 312 329 417 255 146 163 123 321 365 274 401 317 301 406 282 360 421 287 409 415 308 448 368 363 486 348 414 329 184 105 59 33 81 155 139 345 325 346 477 370 463 567 421 546 606 462 632 610 547 666 543 592 488 262 150 83 47 289 163 92 55 31 20 19 9 11 12 6 17 301 411 558 810 844 950 1013 1023 1023 1023 1023 1023 1023 1023 1023 1023 1023 1023 1023 1023 1023 1023 1023 1023 1023 1023 1023 1023 1023 1023 1023 1023 1023 1023 1023 1023 1023 1023 1023 1023 1023 1023 1023 1023 1023 1023 1023 1023 1023 1023 1023 1023 1023 1023 1023 1023 1023 1023 1023 1023 1023 1023 1023 1023 1023 1011 1011 1023 938 989 1023 883 969 1023 886 978 1006 879 977 953 924 1003 881 933 1009 852 932 1002 833 939 976 830 946 934 860 963 864 849 962 824 843 935 777 792 543 295 169 109 62 44 26 15 17 13 7 27 184 153 360 549 498 731 848 759 910 967 911 996 956 988 1023 953 1017 1023 1004 1023 1023 1023 1023 989 1023 1023 994 1023 1023 1023 1023 1023 1023 1023 904 979 1023 942 1014 987 964 1023 886 953 1018 879 976 985 905 994 869 898 990 841 935 977 813 932 909 827 948 830 838 937 797 896 974 808 923 906 818 932 794 800 897 721 809 858 691 812 779 642 796 716 654 780 609 632 751 578 694 749 609 746 735 638 747 633 654 763 592 677 749 575 728 732 573 630 337 189 108 61 39 27 15 17 13 8 12 11 13 245 411 407 702 832 819 944 913 971 1020 736 400 216 119 207 225 242 471 497 716 894 984 1023 1023 1023 1023 1023 1023 1023 1023 1023 1023 1023 1023 1023 1023 1023 1023 1023 1023 1023 1023 1023 1023 1023 1023 1023 1023 1023 1023 1023 981 1023 1023 949 1006 1023 925 996 1023 909 993 1006 906 993 901 890 985 815 858 947 757 847 910 729 857 877 709 834 800 675 788 721 637 738 612 587 699 551 580 688 528 572 670 501 586 663 505 621 641 497 651 615 533 651 540 534 641 486 529 624 458 541 610 455 566 604 468 601 598 449 589 555 445 573 515 464 588 474 483 581 424 491 576 398 488 553 404 526 569 409 555 573 417 560 543 450 572 492 457 556 383 456 536 368 500 525 379 509 476 405 523 386 420 522 369 470 529 372 519 580 508 699 655 524 525 374 421 532 358 453 502 355 493 489 357 496 439 400 522 378 432 524 354 479 520 366 521 528 403 523 475 432 546 392 468 550 395 518 553 413 562 541 430 576 479 447 547 379 438 500 343 464 480 345 478 443 361 458 344 342 436 297 383 454 314 459 464 343 456 423 374 518 391 415 518 367 465 523 353 481 496 327 465 420 232 130 72 45 30 17 16 13 8 11 42 30 156 306 252 485 542 475 670 618 669 818 676 781 872 733 865 876 772 896 805 813 923 752 832 920 734 863 870 752 873 744 739 844 666 739 800 631 760 807 649 758 793 613 734 802 622 752 840 743 892 894 650 707 587 537 659 551 544 658 522 563 656 494 585 668 497 620 631 501 649 607 514 622 530 517 626 480 512 624 466 539 629 466 585 646 482 618 619 457 257 141 83 161 100 60 178 192 247 407 300 363 485 360 458 542 391 498 574 437 585 591 463 608 602 498 624 547 516 638 532 538 645 496 487 272 150 88 52 28 22 22 15 97 175 132 307 442 295 426 442 414 590 510 584 673 538 668 731 624 784 740 642 758 536 352 444 361 545 648 547 730 716 639 784 651 661 763 589 674 749 600 747 748 626 752 660 648 750 606 668 736 569 702 744 643 836 859 779 767 525 548 659 507 619 643 501 639 576 530 656 510 559 632 458 570 620 487 632 573 500 624 492 535 618 467 597 629 470 610 552 502 627 472 545 612 436 569 612 469 605 548 460 589 430 449 539 358 467 520 366 508 503 383 522 451 423 520 382 418 516 368 467 522 376 509 514 384 523 478 411 541 396 449 528 382 494 536 393 518 512 398 544 492 427 530 396 435 518 363 469 527 388 521 545 405 536 515 451 567 435 454 545 374 458 527 366 450 512 351 431 513 363 439 509 350 474 521 381 502 527 387 534 556 484 698 717 578 576 422 340 482 434 407 524 400 417 525 366 436 530 377 473 531 359 467 518 381 522 549 411 552 558 415 553 529 415 546 508 434 543 460 469 580 445 502 578 431 526 608 438 533 567 386 506 542 392 518 516 338 458 324 214 414 432 357 502 421 392 257 141 84 50 29 20 16 7 10 11 5 42 267 288 362 572 487 652 804 706 870 916 832 953 907 902 992 851 930 1006 874 973 986 901 986 874 878 979 811 898 946 816 927 896 814 918 756 808 879 677 784 854 680 811 778 659 785 675 636 763 605 661 746 575 697 711 582 741 718 742 900 743 692 659 469 608 616 493 625 494 519 623 451 540 614 459 596 603 461 604 519 477 612 466 526 597 414 550 568 421 554 537 466 590 487 519 621 451 533 588 427 577 586 455 571 485 458 519 353 401 494 334 443 485 347 477 445 349 483 398 404 497 338 412 480 340 471 490 377 515 484 418 534 394 431 520 368 441 510 358 499 489 384 508 415 417 511 369 452 518 358 486 505 374 509 463 398 532 405 447 528 373 457 554 385 429 510 357 441 511 349 453 509 358 482 499 352 500 502 369 513 490 390 540 451 410 533 417 517 686 579 601 544 337 361 467 340 435 506 349 480 514 374 504 518 386 520 529 384 521 522 396 533 527 413 539 482 426 559 448 464 558 392 447 562 403 506 562 412 542 571 432 568 571 434 583 552 414 531 467 394 510 398 379 477 350 379 466 316 407 499 327 435 503 352 480 502 359 507 501 383 514 465 422 542 396 443 533 372 470 519 375 512 531 386 536 494 425 538 384 427 524 368 472 526 399 527 524 397 552 499 459 592 424 470 554 392 514 535 372 514 502 383 516 462 427 547 408 460 534 379 511 546 400 544 543 431 586 541 592 757 560 506 501 329 477 507 407 545 473 426 541 406 467 544 387 533 547 414 554 503 428 553 415 471 557 393 517 585 422 579 552 444 573 496 502 590 435 519 602 431 559 582 447 583 515 435 541 415 436 511 342 446 502 344 491 463 378 501 392 425 522 366 455 527 378 512 520 393 553 528 424 545 426 418 525 381 315 189 104 65 37 23 21 13 8 25 16 11 129 82 49 38 50 119 306 285 471 675 587 669 814 676 733 862 698 775 